label;0;1;2;3;4;5;6;7;8;9;10;11;12;13;14;15;16;17;18;19;20;21
0;0.0;0.988465314136127;1.0;1.0;0.988465314136126;0.532625189681335;1.0;1.0;1.0;0.212001299866497;0.42739536890387797;0.229424231844258;0.8762264150943408;0.8044670064719741;0.870404855237695;0.87622641509434;0.5964912280701751;0.8284988485755591;0.8654070267429019;0.8704048552376971;0.18394265182443303;0.35945405205120295
0;0.0133362537824128;0.9920647905759159;0.985925074937692;0.9968708288414722;0.9920647905759159;0.531107738998483;0.9882253891820779;0.996677273694144;0.9968708288414722;0.207374765858047;0.419654662442836;0.21693725031593397;0.9144654088050319;0.819199557210529;0.902223823829229;0.9144654088050319;0.587719298245614;0.841731385551376;0.898315247006554;0.9022238238292279;0.173639650180534;0.34758753854148805
0;0.023225523403189;0.985193062827226;0.975271479335616;0.9887279397268941;0.9851930628272251;0.5250379362670711;0.979282306218797;0.988036400805734;0.9887279397268941;0.208796348441129;0.42138617707133097;0.222079210477788;0.927421383647799;0.8182093164349109;0.911303655947594;0.927421383647799;0.5745614035087719;0.8408436322515641;0.9077223605509649;0.911303655947594;0.16560646317326502;0.33133943833616103
0;0.0283729068543791;0.9700589005235609;0.970910935416958;0.9779795676910971;0.97005890052356;0.52959028831563;0.9756142028213979;0.9766433040819208;0.977979567691098;0.21270765363976502;0.42737812619691706;0.230640353831463;0.9411320754717;0.815168498383541;0.9203485500604391;0.9411320754716981;0.5745614035087719;0.838116036125374;0.917100540259022;0.9203485500604379;0.153037017821312;0.307724502082064
0;0.0369347998913175;0.976357984293195;0.9594371747879019;0.977445036800966;0.9763579842931941;0.5204855842185129;0.965940977636281;0.976077084395107;0.977445036800966;0.211479075560947;0.42633511229598603;0.230871348797344;0.938867924528303;0.81468079564476;0.918573996819176;0.9388679245283019;0.578947368421053;0.8376783594264259;0.915260026779873;0.918573996819177;0.156617748286034;0.310026205441359
0;0.0299926181729786;0.9688318062827229;0.967078413222626;0.975796253830669;0.9688318062827229;0.5204855842185129;0.97238657171312;0.974330779366691;0.975796253830669;0.21522572614863197;0.43313323392508096;0.20129279049837304;0.946792452830188;0.839648482045799;0.931376907374559;0.946792452830189;0.587719298245614;0.860010772195515;0.9285450781133209;0.931376907374559;0.167635769089863;0.32488673335395
0;0.0332674764704452;0.9676047120418849;0.965894668709971;0.9746114471892441;0.9676047120418849;0.51896813353566;0.971388957089636;0.973076102210059;0.9746114471892441;0.208491844902609;0.424789258431928;0.19899311862819602;0.9387421383647808;0.839782345370678;0.9256005036046558;0.93874213836478;0.5964912280701751;0.8601301012936249;0.922549344246748;0.9256005036046571;0.175404285969752;0.33474244098369105
0;0.0286584567748783;0.973740183246073;0.9714815986390841;0.9804095513790742;0.973740183246073;0.5204855842185129;0.9760945011543449;0.9792177923963459;0.9804095513790749;0.205059045300409;0.41970778254437796;0.216744601196502;0.9425157232704409;0.8272235599385931;0.9247663289599979;0.94251572327044;0.592105263157895;0.848916129554785;0.9216837403091741;0.9247663289599979;0.161949581846608;0.313955750279359
0;0.039338398712214;0.9681773560209441;0.9614332928981121;0.9732734340233371;0.9681773560209429;0.5250379362670711;0.967626095696489;0.971659393072455;0.9732734340233359;0.20439366932874697;0.41693169017181797;0.213720416234047;0.9374842767295591;0.832765422895524;0.922702711275562;0.93748427672956;0.592105263157895;0.853869244765941;0.91954263641902;0.922702711275562;0.152011756190999;0.29771869839818393
0;0.0374157869255362;0.9730039267015709;0.9598924563953349;0.9755975898681991;0.9730039267015709;0.5250379362670711;0.9663254087122058;0.9741203876204709;0.9755975898681991;0.20920249847355998;0.424667862169371;0.204922916684227;0.952075471698114;0.8432688412410959;0.9362180652082571;0.9520754716981129;0.587719298245614;0.8632365396453171;0.933572332179731;0.9362180652082571;0.138692387129784;0.283577491780327
0;0.0505908237383655;0.9685045811518329;0.949215934704242;0.9688610035599379;0.9685045811518329;0.5204855842185129;0.9572973320054731;0.9669890175151579;0.9688610035599379;0.20354940425575602;0.41383943649201704;0.188196112712726;0.9423899371069191;0.854825289781075;0.932497401153052;0.942389937106918;0.583333333333333;0.873512514304789;0.929708459450032;0.932497401153053;0.147987954303314;0.30141674068709695
0;0.0553027469364602;0.9716132198952879;0.946239547880171;0.9696100569847041;0.9716132198952879;0.51896813353566;0.9547756277737801;0.9677816893868341;0.9696100569847049;0.19784436357325402;0.40408177591719796;0.16928783166037198;0.9659119496855341;0.8726900557014631;0.954533677450561;0.965911949685535;0.583333333333333;0.889335726082376;0.952610796500292;0.9545336774505601;0.146263415897676;0.301481324023345
0;0.067255950916747;0.97136780104712;0.9347872874137959;0.96513954951617;0.97136780104712;0.5174506828528069;0.945052912557144;0.9630518902065591;0.96513954951617;0.191942590042524;0.39524663875948296;0.14776521117754599;0.9719496855345909;0.888024750954975;0.9632252887578749;0.9719496855345909;0.587719298245614;0.9028585505459301;0.961655835231447;0.9632252887578749;0.162776019854393;0.3261664196656
0;0.0672776580115144;0.973167539267016;0.9354302903673409;0.9664668627762459;0.973167539267016;0.5204855842185129;0.9455996498078271;0.9644559294425671;0.9664668627762459;0.189292199763012;0.39149197454301904;0.147379491098349;0.9772327044025161;0.8883351405282819;0.967124923877563;0.9772327044025161;0.587719298245614;0.9031317039858531;0.9657162169330459;0.967124923877561;0.15782448051069198;0.32440466618975106
0;0.0750903592120325;0.9730039267015709;0.9271975878817621;0.963259903892881;0.9730039267015709;0.523520485584219;0.93859187653183;0.9610639648012289;0.963259903892881;0.189812539950295;0.38978206243065505;0.150965768587821;0.9659119496855341;0.8864529061106801;0.9584246136675;0.965911949685535;0.592105263157895;0.9014749321272201;0.9566591224367429;0.958424613667499;0.152804123113971;0.315747806815201
0;0.08259676969111;0.9820026178010469;0.9168950892125679;0.9647960473962129;0.9820026178010469;0.522003034901366;0.9297988887981209;0.9626885673945971;0.9647960473962142;0.19030676573585897;0.388397790518215;0.13987713535069699;0.9695597484276751;0.8941505705344731;0.96323185098879;0.969559748427673;0.6008771929824561;0.908245381182162;0.9616626668316971;0.96323185098879;0.164191524502823;0.330741703929585
0;0.0887557103076674;0.9834751308900529;0.909570739778412;0.9629186885673392;0.983475130890052;0.515933232169955;0.923531770285576;0.9607031402797229;0.9629186885673392;0.19279718983063102;0.389209023451589;0.145513681421302;0.9715723270440251;0.8884951948006401;0.9630859369889341;0.9715723270440251;0.5964912280701751;0.9032725485405059;0.9615107641908409;0.9630859369889351;0.170717281432692;0.335737478680498
0;0.10174177390369901;0.97881217277487;0.896209876703855;0.95505632008928;0.9788121727748691;0.50834597875569;0.912065079561635;0.952392933978035;0.95505632008928;0.19238670216758802;0.38677010790591704;0.132900137792652;0.9745911949685541;0.901026694978748;0.968803792211135;0.9745911949685541;0.587719298245614;0.914281747982947;0.9674647047382371;0.968803792211135;0.160415499508915;0.327487228165223
0;0.105626334794306;0.989446989528796;0.890922822521501;0.959479953648049;0.989446989528796;0.502276176024279;0.907515208223913;0.95706759231897;0.9594799536480481;0.19022942893922798;0.38168734652236497;0.135319936335716;0.9763522012578629;0.8984549190771909;0.96934780060266;0.976352201257862;0.578947368421053;0.9120253206935292;0.968031325700159;0.969347800602659;0.15230006809540303;0.325395735884411
0;0.102067918949221;0.98797447643979;0.8949013741390159;0.9600937716170791;0.9879744764397909;0.502276176024279;0.9109396793547021;0.957716434040135;0.9600937716170791;0.19081386188136604;0.383358646634492;0.12771584178356302;0.994088050314465;0.9086975850981741;0.985031808642986;0.9940880503144659;0.5745614035087719;0.9210030866781179;0.9843785413810121;0.9850318086429849;0.137371115424544;0.30752495791283396
0;0.105369660555321;0.989692408376963;0.8905559697953679;0.9594895765482571;0.989692408376963;0.506828528072838;0.9071992448339091;0.9570777639301109;0.959489576548258;0.192012788806966;0.38388814616705796;0.139587341877278;0.988427672955977;0.898526703394403;0.978079355377848;0.9884276729559749;0.56140350877193;0.912088323395726;0.977129409797962;0.97807935537785;0.13152181722862;0.302013394294779
0;0.10507337937626599;1.0;0.8905038964495922;0.9656956021897142;1.0;0.50834597875569;0.9071543922798578;0.9636400591595179;0.965695602189713;0.19011888515616196;0.378766469753074;0.140056033954078;0.9945911949685559;0.900667337582628;0.983129821505347;0.9945911949685531;0.557017543859649;0.9139665454337449;0.9823949661554492;0.983129821505346;0.126051624912285;0.290646669204595
0;0.0970467921865544;0.99476439790576;0.898593834708976;0.9655879710386228;0.9947643979057591;0.506828528072838;0.914114337633771;0.9635262084944729;0.9655879710386228;0.19464766972377398;0.3870334839814679;0.13696283549567598;1.0;0.899658432119443;0.98674741788627;1.0;0.5657894736842111;0.913081448273915;0.9861680187877041;0.98674741788627;0.137746734864919;0.310816720249591
0;0.0908172418338589;0.990019633507853;0.9061269243850429;0.965567726783115;0.990019633507853;0.50834597875569;0.9205804492314771;0.9635047945762829;0.965567726783115;0.196149915395503;0.390067055459065;0.15542498800715698;0.990943396226415;0.8857365151826508;0.9762849793898721;0.990943396226415;0.557017543859649;0.9008441389260692;0.975259158764782;0.976284979389873;0.131465938869874;0.296050164242547
0;0.0912139105069419;0.991083115183247;0.9054004209555191;0.9659353212327672;0.991083115183246;0.50834597875569;0.919957464604076;0.9638936356407539;0.965935321232768;0.19726650751789102;0.39074558134182796;0.16035642749071202;0.988427672955977;0.881471370407636;0.973265460760998;0.9884276729559749;0.56140350877193;0.897086157331022;0.9721126040613459;0.9732654607609991;0.13275198169101;0.29539412504972196
0;0.11026312426420501;0.98372054973822;0.8870112889943509;0.954543154128235;0.98372054973822;0.5098634294385429;0.9041445244231759;0.9518508049491851;0.954543154128236;0.194855496879368;0.38409117161278;0.14663546028958402;0.9832704402515731;0.8938106401517141;0.9730274912762908;0.983270440251572;0.5657894736842111;0.907946684380415;0.9718646571581508;0.9730274912762908;0.135699322490199;0.29721007743914196
0;0.126940446312635;0.980857329842933;0.8702101255174771;0.946458988438744;0.9808573298429321;0.5007587253414261;0.8896221998617759;0.9433146818105901;0.946458988438745;0.18820686028553896;0.375072852073601;0.144770409779249;0.9875471698113208;0.896172270962004;0.976779674618095;0.9875471698113208;0.552631578947369;0.910021301637601;0.9757747436542471;0.976779674618095;0.131822963776318;0.29356959333266697
0;0.13035564004277303;0.9815935863874351;0.8673461893614399;0.9458203440756479;0.9815935863874351;0.502276176024279;0.8871395018149071;0.9426406787355509;0.9458203440756479;0.183020588987768;0.369119686907628;0.138465720853639;0.993710691823899;0.902565380015099;0.9830300126385021;0.993710691823899;0.557017543859649;0.915631039024094;0.9822908847163442;0.983030012638501;0.12907593422816002;0.290215628052303
0;0.13660843270588802;0.980366492146598;0.8616021081413141;0.942904493127008;0.9803664921465971;0.5053110773899849;0.8821536730695351;0.9395640340395641;0.942904493127008;0.18011077030115102;0.36420853266385295;0.13519188138614602;0.992327044025159;0.9068784024050279;0.983248512028905;0.9923270440251569;0.557017543859649;0.9194103045244649;0.9825187386776272;0.983248512028906;0.120713589959614;0.28106709054687107
0;0.130049553373112;0.9861747382198951;0.8668176519621129;0.948389847725805;0.9861747382198951;0.506828528072838;0.88668109058698;0.945352751474348;0.9483898477258059;0.18017421727490002;0.366747738560725;0.142162764278463;0.991069182389937;0.90085403364034;0.9806416692321321;0.991069182389937;0.570175438596491;0.914130305512375;0.979800565495757;0.9806416692321321;0.123555045832379;0.28077465844184496
0;0.137232675951981;0.971858638743455;0.860832481500229;0.937468913934618;0.971858638743456;0.503793626707132;0.8814849928617579;0.93383152814003;0.937468913934618;0.18076813278419301;0.36876344810410405;0.14728643012862;0.9888050314465431;0.893527656055788;0.97694084129002;0.988805031446541;0.56140350877193;0.9076980060468149;0.9759427206486321;0.97694084129002;0.129532997055393;0.293612146838721
0;0.14519738563351098;0.969813481675392;0.8539963802321892;0.9336422614232959;0.9698134816753929;0.5007587253414261;0.8755387782533249;0.929798038199575;0.9336422614232959;0.176596470073565;0.36192385518316;0.140146832591686;0.9913207547169829;0.90040203179563;0.980695631027752;0.9913207547169809;0.557017543859649;0.913733819297106;0.979856825733111;0.9806956310277509;0.128225447524106;0.291981487582525
0;0.135601879043872;0.974149214659687;0.861989423870945;0.9392919903421021;0.974149214659686;0.502276176024279;0.882490129272697;0.935753784196243;0.939291990342101;0.18116541931308103;0.369809737233864;0.125369017566444;0.981132075471698;0.9144929104680279;0.977322928571058;0.981132075471698;0.552631578947369;0.926072172706251;0.97634096275733;0.977322928571058;0.122251075837273;0.286370716388265
0;0.142129559992241;0.967359293193717;0.853422702947691;0.9319405969697679;0.967359293193717;0.502276176024279;0.8750392254747629;0.928004979449777;0.931940596969769;0.18655944884625503;0.377585764195529;0.131656290408716;0.984905660377361;0.906384823746105;0.977756279950888;0.9849056603773589;0.548245614035088;0.9189780229799351;0.9767926520915151;0.9777562799508891;0.125719592752589;0.297030258835673
0;0.14007001556115803;0.972349476439792;0.8561193030076949;0.9359803083867679;0.9723494764397909;0.503793626707132;0.8773866526915429;0.9322622448353199;0.9359803083867679;0.18291578610776998;0.372387757417198;0.145033509603919;0.969937106918241;0.8938523959349031;0.9634198380473029;0.969937106918239;0.539473684210526;0.907983376612695;0.9618583720859208;0.963419838047304;0.128175308422162;0.29817012431308604
0;0.143802573198073;0.9610602094240841;0.8550097401783009;0.928732960231196;0.9610602094240841;0.502276176024279;0.8764209927050791;0.9246260416086709;0.928732960231196;0.18140150983649303;0.37006431893421;0.14367535157529998;0.969937106918241;0.894592862971014;0.9636290521404051;0.969937106918239;0.530701754385965;0.9086339838192711;0.9620761795762479;0.9636290521404051;0.12627245435950898;0.299229915084674
0;0.162788495131937;0.9525523560209429;0.8369211689983879;0.9167230755976049;0.9525523560209429;0.496206373292868;0.8606328783865799;0.911986119498229;0.9167230755976049;0.17788659178239102;0.3623006825193;0.139090340050671;0.970817610062894;0.8993981593224409;0.965621803332226;0.9708176100628929;0.526315789473684;0.91285307724425;0.964150976758092;0.965621803332226;0.12021631155150699;0.294151682018498
0;0.16499370316796697;0.9498527486911009;0.8345633611682579;0.914194037025968;0.9498527486911;0.496206373292868;0.8585685714489258;0.909326689308316;0.9141940370259671;0.17709432967884697;0.3623989449635279;0.13204053672241198;0.9669182389937121;0.904196441729655;0.964164808514417;0.9669182389937109;0.517543859649123;0.917060746985635;0.962633959643728;0.964164808514417;0.121674211979833;0.300877620457536
0;0.17041604959321696;0.9574607329842929;0.8280651074706429;0.916331118106399;0.9574607329842929;0.49468892261001507;0.8528715700551129;0.911573901573066;0.916331118106399;0.173096558079286;0.355990462970735;0.138542950430707;0.9743396226415101;0.8996910126690351;0.968245096393462;0.974339622641509;0.517543859649123;0.9131100343191241;0.9668828131404631;0.968245096393463;0.11637677494319501;0.293633803960625
0;0.172366235216776;0.9570517015706809;0.8266746237496478;0.915555463940111;0.9570517015706809;0.49165402124431;0.851651073493347;0.910758209739336;0.915555463940112;0.171051547604114;0.35321168872381703;0.136942943693423;0.9768553459119509;0.9011397596501741;0.97046891862798;0.97685534591195;0.517543859649123;0.9143809141123141;0.96919912748409;0.970468918627982;0.116103701724392;0.293868970011412
0;0.167712086123363;0.9496891361256559;0.831580739770679;0.912962081281619;0.949689136125654;0.49317147192716204;0.855955112047928;0.908031504156442;0.9129620812816199;0.174941353472042;0.360690644476326;0.127552362728953;0.97924528301887;0.909232814344793;0.974477603341265;0.9792452830188679;0.517543859649123;0.9214715626904909;0.973375646389941;0.974477603341264;0.115271501307156;0.29563583124914394
0;0.172743552287181;0.948952879581152;0.8271765091515451;0.9108431668224292;0.948952879581152;0.49468892261001507;0.852091662841127;0.9058042782153359;0.91084316682243;0.172191149180921;0.35589695712495;0.13287318629178999;0.9845283018867921;0.904167478812375;0.976858330398946;0.9845283018867921;0.513157894736842;0.9170353648104841;0.9758567228572479;0.976858330398944;0.116474232003255;0.29745096261538395
0;0.184645341683278;0.93684554973822;0.81590841839782;0.89922819030167;0.93684554973822;0.49317147192716204;0.842183482007524;0.8936054828196129;0.89922819030167;0.17163806080013302;0.354651098668109;0.144021515203104;0.979874213836479;0.8953453619133911;0.97101053541733;0.979874213836478;0.508771929824561;0.909295033939333;0.9697633372929829;0.9710105354173291;0.11433118129684401;0.29086183662926196
0;0.18054172634790303;0.929482984293195;0.8226330440436809;0.897329470943895;0.9294829842931941;0.49468892261001507;0.8481006391578969;0.891612917732009;0.897329470943895;0.17307615439550303;0.355691345063493;0.15393234090666802;0.9803773584905671;0.889463977060132;0.9697127736806249;0.9803773584905658;0.513157894736842;0.904124931525353;0.968411484161136;0.969712773680624;0.10888862811928099;0.27606871987001197
0;0.176133380243547;0.9355366492146608;0.8245290246791609;0.901715299616121;0.9355366492146601;0.49468892261001507;0.849766759536991;0.896216196345644;0.901715299616121;0.17624648072754898;0.361584788309886;0.172533299465211;0.973081761006291;0.8757275867349631;0.9605672838097021;0.9730817610062891;0.508771929824561;0.8920186953623241;0.9588890371301491;0.960567283809703;0.100137476891309;0.258630535846552
0;0.172227656885985;0.929482984293195;0.8265323336406172;0.8988133175806909;0.9294829842931941;0.496206373292868;0.851526149238923;0.893170066483078;0.898813317580689;0.18369276550747604;0.37447718247932793;0.182787742401731;0.97119496855346;0.8668417705444309;0.9566936654654651;0.9711949685534591;0.517543859649123;0.884164024910234;0.954857991123742;0.9566936654654651;0.102367849815412;0.25699486298714896
0;0.18371596333506;0.918030104712042;0.815082096103889;0.88752062303581;0.918030104712042;0.49924127465857393;0.841455540028648;0.881326385230678;0.88752062303581;0.183823830569014;0.37489936604497903;0.17534290334796498;0.9722012578616349;0.8735511560204008;0.959316635937998;0.9722012578616349;0.517543859649123;0.890096531249218;0.957587416353083;0.959316635937998;0.105378251413542;0.25927296396956195
0;0.191138645070594;0.9115674083769642;0.806088694768533;0.880178998599469;0.911567408376963;0.496206373292868;0.8335209051295079;0.873635041164689;0.8801789985994699;0.18707840401058498;0.379885321484256;0.15964592255603302;0.9743396226415101;0.8846412250863521;0.9639938168793991;0.974339622641509;0.521929824561404;0.899879489994755;0.9624559361783871;0.9639938168793991;0.11310209097823;0.27562988926724796
0;0.185877601696508;0.921875;0.8092918356051079;0.887642699525278;0.921875;0.49468892261001507;0.836349468777034;0.8814543333918651;0.8876426995252791;0.18905676190852103;0.382713368071683;0.13629108098659898;0.9827672955974859;0.9054548039796201;0.975951443583554;0.982767295597484;0.504385964912281;0.918163351100828;0.974911550869703;0.9759514435835551;0.107984924335543;0.27639160766622806
0;0.190840511681626;0.9183573298429321;0.8053094593234059;0.883994455879646;0.9183573298429321;0.49317147192716204;0.8328323711888;0.877631413646947;0.883994455879647;0.18545754764365804;0.37803915778369607;0.12479006259357499;0.982012578616354;0.914555876123397;0.9779756483617629;0.982012578616352;0.49561403508771895;0.9261272061224829;0.9770213097704742;0.977975648361762;0.11242438559666698;0.284144665107658
0;0.20716992770524598;0.9083769633507851;0.7903550536482971;0.8722432178236221;0.9083769633507851;0.482549317147193;0.8195863878614059;0.865328760748003;0.872243217823621;0.180509193160883;0.369991442806274;0.12809421682486;0.9753459119496851;0.906823366031328;0.970985075357966;0.975345911949686;0.5;0.919362105813463;0.969736814609658;0.970985075357965;0.127948471725674;0.308418572166037
0;0.216825915441068;0.8984784031413621;0.783390843334166;0.8635838846274599;0.8984784031413611;0.477996965098634;0.8133967181577909;0.8562740638905659;0.8635838846274599;0.175181946655582;0.36176957297332;0.12803015640485302;0.967547169811322;0.9061060474702259;0.965157900348362;0.9675471698113209;0.49561403508771895;0.918733843225376;0.963667942434525;0.9651579003483629;0.134177253976959;0.313739560905106
0;0.209451745879802;0.9112401832460741;0.7911595759373079;0.874285544668798;0.911240183246073;0.47951441578148707;0.8203005670396251;0.8674656913340729;0.874285544668798;0.171225990472692;0.355704085726296;0.13843274877662898;0.9773584905660379;0.8981084788688779;0.969975886777023;0.9773584905660379;0.482456140350877;0.911721245102648;0.968685551888817;0.9699758867770241;0.129768246672716;0.30719006674215305
0;0.20653195593395499;0.9245746073298431;0.792166856816765;0.882751618887503;0.9245746073298431;0.482549317147193;0.821194483945348;0.876329447420979;0.882751618887503;0.171028873252112;0.354395000655276;0.147606986152273;0.9720754716981129;0.892964675689407;0.96471173344532;0.9720754716981129;0.46491228070175394;0.9072032203211831;0.9632033936175171;0.96471173344532;0.11652619895044;0.288294954615516
0;0.216634004849882;0.918766361256544;0.7829524069616559;0.875716157940081;0.918766361256545;0.47951441578148707;0.813006592469866;0.8689628811142092;0.8757161579400821;0.166305381876942;0.347823012093609;0.13129396896060902;0.9694339622641529;0.904817778275764;0.966154767430644;0.9694339622641508;0.469298245614035;0.917605220489672;0.964705943813705;0.9661547674306451;0.12639460392524;0.30432150974334
0;0.20823658917547896;0.9301374345549741;0.7902190101779741;0.8853811887395279;0.9301374345549741;0.476479514415782;0.819465603572587;0.879084347996157;0.8853811887395279;0.16762352907257802;0.349377453617102;0.13557033481706698;0.967924528301887;0.899570047405612;0.9635835040019749;0.967924528301887;0.47368421052631604;0.9130038986545451;0.962028760233335;0.9635835040019741;0.129386957707409;0.31062789698962395
0;0.206557665725355;0.9379090314136129;0.791431773698938;0.8905546457005219;0.9379090314136129;0.473444613050076;0.8205421580753641;0.884506887429887;0.890554645700521;0.16618880183940699;0.34642249517657603;0.128948959147268;0.966037735849059;0.9070138108741899;0.9643257622492829;0.9660377358490569;0.482456140350877;0.919528887054689;0.9628015347792751;0.964325762249282;0.11940742264662899;0.300248738229328
0;0.19878662760716098;0.9544339005235609;0.796563685667266;0.902525874646063;0.95443390052356;0.482549317147193;0.825093195540588;0.8970672211443879;0.902525874646063;0.16810058248072599;0.34820193221393;0.12394198872264699;0.9601257861635241;0.9111683678536859;0.961236377864535;0.960125786163522;0.482456140350877;0.923165173902477;0.959585458496823;0.961236377864535;0.11588136967421402;0.29976104433068
0;0.184057214099786;0.968750000000001;0.810488888465547;0.916494690449662;0.96875;0.48103186646434004;0.8374058211505699;0.911745926715862;0.9164946904496609;0.16716075940347197;0.34888344582451297;0.0894869547375171;0.9757232704402541;0.9382747293475551;0.9801344162554159;0.9757232704402521;0.47368421052631604;0.946794712410312;0.979271719264631;0.9801344162554159;0.125480087240685;0.321741457442055
0;0.17936682421737601;0.972185863874347;0.8157815677060429;0.920585686998896;0.972185863874346;0.48558421851289796;0.8420717459017258;0.916049410474832;0.920585686998895;0.167084469693531;0.347952174700279;0.0535894565020346;0.9757232704402541;0.9631391205970908;0.9871476778928799;0.9757232704402521;0.469298245614035;0.9683264791015079;0.986585550120638;0.9871476778928799;0.147267807445974;0.360296846653606
0;0.175803331358889;0.978239528795813;0.81966729603313;0.9257273371082979;0.978239528795812;0.488619119878604;0.8454925086115809;0.9214610645001491;0.9257273371082991;0.16601940652431196;0.345119588359034;0.0424117228649548;0.9757232704402541;0.9708060966241451;0.989309386027335;0.9757232704402521;0.456140350877193;0.974938579415607;0.988840781920853;0.989309386027335;0.15124499999244;0.37103913512971104
0;0.170080142170767;0.979957460732984;0.8261354260875698;0.929220748237587;0.979957460732984;0.488619119878604;0.851177653795484;0.925139797195919;0.929220748237587;0.166352873182293;0.34558655555046297;0.0346166163686229;0.9845283018867921;0.9785311351032941;0.997826782407497;0.9845283018867921;0.442982456140351;0.9815878915046551;0.997730703140446;0.9978267824074979;0.142711150579197;0.36530543397741994
0;0.177466383367139;0.9796302356020941;0.81937966153539;0.9264607083760601;0.9796302356020941;0.48558421851289796;0.8452394319286031;0.9222332147002271;0.9264607083760601;0.16189099300552698;0.338469620934161;0.0167209094518622;0.9831446540880509;0.989782134159975;1.0;0.98314465408805;0.43421052631579;0.991249226405496;1.0;1.0;0.159301271163713;0.390606362980561
0;0.18008093400984002;0.972104057591624;0.818176385272935;0.921444993205109;0.9721040575916229;0.477996965098634;0.8441804814937169;0.9169536131704159;0.921444993205109;0.159285503375181;0.33671450640028605;0.0;0.977610062893082;1.0;0.998894776323843;0.977610062893082;0.43421052631579;1.0;0.9988458614165691;0.998894776323844;0.174134295343844;0.414228609309873
0;0.17221983746289998;0.9669502617801049;0.8269907946481909;0.9216686664848491;0.9669502617801049;0.477996965098634;0.8519286377953221;0.917188987821191;0.9216686664848491;0.162883853707201;0.34307807671101304;0.00689087634323649;0.9665408805031469;0.9939379193311091;0.989220414069798;0.966540880503145;0.469298245614035;0.9948109965377709;0.9887479525292191;0.989220414069798;0.176820963845465;0.413856051100999
0;0.183720085636466;0.9522251308900529;0.8159532043708292;0.9085594900933249;0.952225130890052;0.473444613050076;0.8422229305781891;0.90340449178348;0.9085594900933249;0.165102691957845;0.34577390096601;0.00100495084487904;0.9742138364779879;0.998509422095999;0.996030794915874;0.974213836477987;0.482456140350877;0.9987248216869872;0.9958556298012091;0.996030794915873;0.18205232435849303;0.419549918009886
0;0.19126740308025603;0.947480366492146;0.8073313129236829;0.902407072217364;0.947480366492147;0.46433990895295896;0.8346185424550749;0.8969424850709301;0.9024070722173629;0.16511927558585002;0.34717502849238396;0.0230094079018806;0.967924528301887;0.9805159365009398;0.9864319001654859;0.967924528301887;0.456140350877193;0.983294229881372;0.985838896399184;0.9864319001654871;0.17121667790665498;0.4079927476911239
0;0.19308294937294895;0.9420811518324609;0.8046603612162909;0.898119550508966;0.9420811518324609;0.45827010622154796;0.8322587003672149;0.8924419932646089;0.898119550508966;0.16917201334603696;0.353261697026774;0.0363391220564738;0.9689308176100629;0.9720832027998191;0.984778279490879;0.9689308176100629;0.43859649122807004;0.9760387348740451;0.9841141182654491;0.984778279490879;0.157879730812915;0.38889374619684497
0;0.20482752393285397;0.92678337696335;0.791599141968787;0.8838740299831691;0.9267833769633509;0.45523520485584207;0.8206906967913009;0.877505249978943;0.88387402998317;0.17481240751418603;0.361490770157199;0.0454660484301993;0.974465408805032;0.96583554087228;0.98700206033165;0.9744654088050309;0.40789473684210503;0.9706533616055691;0.986433647479783;0.98700206033165;0.149723571555893;0.378455436014473
0;0.224188462773093;0.918766361256544;0.7721098258500241;0.871578139653976;0.918766361256545;0.45523520485584207;0.8033416451268421;0.8646329868561371;0.871578139653977;0.173470549778319;0.35607316962428004;0.0719430962806626;0.973584905660379;0.946404525961836;0.98088719340344;0.9735849056603771;0.399122807017544;0.9538498149439159;0.980056549575717;0.9808871934034409;0.13572094794718198;0.35560386306001796
0;0.232729714330425;0.9135307591623041;0.7639657855060309;0.8652915055551271;0.9135307591623041;0.45827010622154796;0.7960604013219922;0.858058913971725;0.8652915055551271;0.171229374133947;0.35244458694580294;0.10343854928581402;0.9674213836478001;0.920948243343309;0.969259449179253;0.9674213836477991;0.39035087719298206;0.9317096284157471;0.9679393000262009;0.969259449179251;0.12631426534255302;0.339248396987741
0;0.244614349960983;0.9035503926701569;0.750802212811188;0.854201670522082;0.9035503926701569;0.461305007587253;0.784251560619019;0.8464739842307909;0.8542016705220831;0.17386623228706;0.356045099429546;0.11089073798327699;0.9638993710691841;0.9176182729143371;0.9657796496722679;0.963899371069182;0.37280701754386003;0.9288027306657609;0.9643153370229329;0.965779649672269;0.114220918736798;0.320250970243708
0;0.26639894654675195;0.890625000000001;0.7290401622811279;0.8380186655044151;0.890625;0.45523520485584207;0.7646196921393851;0.829595890811859;0.8380186655044151;0.17359781953804299;0.351743588348338;0.12287807701507902;0.956603773584908;0.905771035318698;0.9571710340918329;0.9566037735849059;0.364035087719298;0.918440383171673;0.955354688647809;0.9571710340918341;0.12057324979803098;0.326242376807814
0;0.27825034568297097;0.890543193717278;0.717609172292037;0.8335866949597059;0.890543193717278;0.447647951441578;0.754252159600766;0.8249792284993559;0.8335866949597059;0.167457214881142;0.341191027796005;0.11786720426671801;0.967924528301887;0.910750826415843;0.966742119126034;0.967924528301887;0.37719298245613997;0.9227998965432601;0.965317572965509;0.9667421191260329;0.123766321996297;0.32730183547174396
0;0.274546781802823;0.890134162303664;0.722437988449336;0.8351895735751279;0.8901341623036649;0.447647951441578;0.7586364406811128;0.8266486218716049;0.835189573575129;0.166329066327246;0.340100736375222;0.11539780110307599;0.9623899371069179;0.9126669255878471;0.9632924549481191;0.9623899371069179;0.368421052631579;0.924475830658621;0.961725758669301;0.96329245494812;0.12388390796611698;0.328158125465386
0;0.271821149371693;0.8880890052356021;0.7244434570792231;0.83471550977203;0.8880890052356021;0.45827010622154796;0.760455263174611;0.8261548526080009;0.8347155097720309;0.17141398998535504;0.3468613763612539;0.0924067932497118;0.9637735849056619;0.930657038095964;0.969371720961132;0.96377358490566;0.368421052631579;0.940170719700813;0.96805624094813;0.969371720961132;0.133905627981959;0.343937415286391
0;0.275882568843011;0.8823625654450269;0.7205634449694699;0.829747108275607;0.8823625654450259;0.46433990895295896;0.756935284716935;0.8209816068718689;0.8297471082756059;0.171645638559478;0.34733932214010904;0.0854883136240153;0.9695597484276751;0.9354691776196921;0.974900647554131;0.969559748427673;0.385964912280702;0.9443566350582511;0.9738164855354929;0.974900647554131;0.140249209847003;0.35260767855807296
0;0.288605434526687;0.875245418848168;0.7092401398996679;0.8210740618198009;0.875245418848168;0.461305007587253;0.746637169528387;0.8119583170944449;0.8210740618198009;0.16580388344915803;0.33792412866531896;0.0930772279728337;0.963018867924531;0.930353616016923;0.9687420591717478;0.963018867924528;0.37719298245613997;0.9399066103137791;0.967400407324119;0.9687420591717472;0.130060057607873;0.34086754402422303
0;0.288599613688744;0.8735274869109949;0.710163161090101;0.8203839835969591;0.8735274869109949;0.45978755690440104;0.747478051964218;0.811240772385753;0.82038398359696;0.163917646481504;0.3359031826245061;0.0986599476052806;0.9659119496855341;0.926804261052783;0.969825041132721;0.965911949685535;0.35526315789473706;0.9368155985368509;0.9685284250830641;0.969825041132721;0.11950232845664802;0.330677310987116
0;0.292274364061784;0.870500654450262;0.7076816752654359;0.8175903107851429;0.870500654450262;0.45978755690440104;0.7452168127086108;0.808336509731198;0.8175903107851429;0.161025709690875;0.33125404000540304;0.10287260197098401;0.974968553459119;0.926472400667772;0.976259916334265;0.9749685534591199;0.328947368421053;0.936526448724737;0.975233037940297;0.976259916334265;0.10597259005948101;0.312215599071325
0;0.305455648720302;0.859947643979059;0.696238997238458;0.8067729700979109;0.859947643979058;0.45523520485584207;0.7347658070127049;0.7971000915088101;0.8067729700979109;0.15602857368688;0.32299038818057296;0.122813350495433;0.9755974842767321;0.9114733460064721;0.972479410334149;0.97559748427673;0.302631578947368;0.923431952686113;0.9712936157490091;0.9724794103341501;0.0977993155433644;0.29693885838888107
0;0.306533427619055;0.86583769633508;0.692202060841939;0.808803607970708;0.8658376963350791;0.450682852807284;0.7310692865769399;0.7992082917546421;0.808803607970708;0.158308264951641;0.327437691884183;0.125713624174532;0.97861635220126;0.908493925241195;0.9738154333952759;0.978616352201258;0.293859649122807;0.920824809997396;0.9726856547646802;0.973815433395277;0.10069910021255599;0.299902030616973
0;0.294938977416485;0.8633835078534029;0.706463084706169;0.8127943501648851;0.8633835078534029;0.453717754172989;0.7441057042745559;0.803352955620368;0.812794350164884;0.15965598507726503;0.32980148768508805;0.128954330017757;0.9681761006289309;0.9046028788943259;0.965186846577776;0.9681761006289309;0.368421052631579;0.917416915385545;0.9636980818473929;0.965186846577777;0.11286902360936399;0.308148806705959
0;0.298775530978185;0.850785340314136;0.7032125250047161;0.8038837814016899;0.850785340314136;0.45523520485584207;0.7411396706492959;0.7941014291649;0.8038837814016899;0.161963201706513;0.334154439935802;0.14508845711948198;0.954968553459121;0.889784350642852;0.951471081937353;0.9549685534591199;0.41228070175438597;0.9044067646245609;0.9494252614895459;0.9514710819373521;0.118595775644676;0.309518629484781
0;0.29261808949741197;0.8532395287958109;0.7086486959574759;0.80746743701824;0.853239528795812;0.45523520485584207;0.7460982236750309;0.7978210267545491;0.80746743701824;0.165072135342312;0.33940987807029704;0.14756417726653398;0.9459119496855349;0.886669492718753;0.94405603635377;0.9459119496855349;0.42543859649122795;0.9016656166300111;0.941716001536708;0.94405603635377;0.12348788188640801;0.31398025213503006
0;0.285857697373248;0.8472676701570679;0.7170353551407479;0.807064000010857;0.8472676701570679;0.452200303490137;0.7537307082187891;0.7974022062046109;0.8070640000108579;0.165119491678195;0.34249760707296;0.162891687502594;0.9387421383647808;0.873805576122243;0.9352407071717299;0.93874213836478;0.429824561403509;0.890321285114385;0.932557236754331;0.935240707171729;0.119255068355493;0.306655864975884
0;0.293695722427263;0.843995418848168;0.709966657181806;0.8023553951347041;0.843995418848168;0.45523520485584207;0.7472990560839491;0.792515550073593;0.802355395134705;0.162922350496938;0.337213308780645;0.174021169508119;0.9338364779874221;0.866352498070174;0.9295889269922629;0.9338364779874209;0.40789473684210503;0.883730993022441;0.9266888921394799;0.9295889269922629;0.111820280780179;0.29241190770023306
0;0.294801056223152;0.8505399214659691;0.7092740618423531;0.806066926925188;0.8505399214659691;0.45827010622154796;0.746668077299168;0.7963672001587491;0.806066926925188;0.159854392120617;0.330668928113415;0.172399819561477;0.9366037735849059;0.8639373842275492;0.9309019714589399;0.9366037735849059;0.46491228070175394;0.881592667111782;0.9280519973187981;0.9309019714589409;0.131014184379597;0.316254711343963
0;0.29235759107243;0.855693717277488;0.712279646865112;0.810355732131115;0.8556937172774871;0.45523520485584207;0.7494052329944371;0.800820045997096;0.810355732131115;0.158052619746769;0.327209355707295;0.17617484673268802;0.927295597484277;0.85753796754289;0.922369198376586;0.927295597484277;0.504385964912281;0.8759200304732729;0.9191966359592929;0.9223691983765849;0.14924561491352803;0.334665462489922
0;0.29255954865069;0.8536485602094251;0.7124426944575301;0.80917533974343;0.853648560209424;0.45827010622154796;0.749553641679309;0.799594277630022;0.8091753397434291;0.15613074427488097;0.32610815860076897;0.18596667847378304;0.9303144654088059;0.8490179297726349;0.9221329059035259;0.930314465408805;0.504385964912281;0.8683525896567559;0.918951502067966;0.9221329059035259;0.15081588052911601;0.334228708577493
0;0.28539986105009496;0.85381217277487;0.721724548042143;0.8128436512336321;0.8538121727748691;0.46282245827010604;0.7579891129443559;0.8034041705747071;0.8128436512336309;0.15441041252589402;0.32405755895359495;0.193236539800144;0.9254088050314491;0.8437490573389979;0.917096417850295;0.925408805031447;0.49122807017543896;0.863664180380338;0.9137277390296559;0.9170964178502959;0.144818419816595;0.32571843357584396
0;0.288472988369189;0.8585569371727749;0.718959950824195;0.8146639800987371;0.8585569371727749;0.45978755690440104;0.755479282453726;0.8052953764495442;0.8146639800987371;0.151352033630259;0.31768810135965503;0.185584176459463;0.933962264150943;0.8518471108692092;0.925568748740519;0.933962264150943;0.460526315789474;0.8708673582436909;0.9225163918220121;0.925568748740518;0.135161948976401;0.318600867354981
0;0.28470823711614196;0.85872054973822;0.7233191009903571;0.8164385829030558;0.85872054973822;0.45523520485584207;0.7594356954242851;0.8071394717043621;0.8164385829030552;0.151420029914242;0.318373326599571;0.19789396509024298;0.93308176100629;0.842339299635979;0.92223749496351;0.9330817610062891;0.421052631578947;0.862408610211544;0.9190600039542909;0.9222374949635109;0.12266414528916901;0.30608405417837103
0;0.28332792729931605;0.8568390052356021;0.7253200956702641;0.8160644261212671;0.8568390052356021;0.452200303490137;0.761249941879774;0.806750630639891;0.8160644261212671;0.151665197675655;0.318781120054351;0.20979715344730898;0.9305660377358491;0.833895844190771;0.9180260782041609;0.9305660377358491;0.421052631578947;0.8548786643207701;0.9146917983825991;0.9180260782041619;0.117359506865261;0.293648078738248
0;0.278413185737713;0.8655922774869108;0.72823043989665;0.822499688812581;0.8655922774869108;0.453717754172989;0.763886566951592;0.813440874030485;0.82249968881258;0.154619218032819;0.32293145899013503;0.17817370234532898;0.931446540880505;0.8553935927665841;0.9247578087638371;0.9314465408805029;0.517543859649123;0.8740170303908549;0.9216748994147329;0.924757808763838;0.155225591789892;0.33969851746424196
0;0.274737813524375;0.8589659685863871;0.7314048445865271;0.8196940201722959;0.8589659685863871;0.453717754172989;0.7667595825050258;0.8105234061263791;0.8196940201722971;0.160461654553373;0.33273306848826195;0.131302941842736;0.9340880503144651;0.887917532147833;0.9358795200865792;0.9340880503144651;0.62280701754386;0.9027641891669829;0.933220705696269;0.9358795200865792;0.20732464626387398;0.40168096285496296
0;0.287748961579211;0.8529123036649209;0.718611530128468;0.8111000721815731;0.8529123036649209;0.453717754172989;0.7551628093424592;0.8015930884437651;0.8111000721815731;0.15790781884775199;0.327075069431489;0.13212547775484898;0.9342138364779871;0.886174949540042;0.935476735381268;0.9342138364779871;0.6096491228070179;0.9012302011736371;0.9328023706456591;0.935476735381268;0.20702664539666898;0.405546330579972
0;0.28807549215065603;0.8448134816753929;0.7191008793545569;0.8063674366364871;0.8448134816753929;0.453717754172989;0.7556072786713779;0.796679129567053;0.8063674366364871;0.160584127309394;0.33078588457889696;0.138044196122411;0.926289308176102;0.8826499316234458;0.928761230770428;0.926289308176101;0.592105263157895;0.898124998214673;0.925829717943319;0.928761230770428;0.200414696538516;0.394952207257801
0;0.284071307848529;0.860274869109948;0.7205097057342009;0.81630344881171;0.860274869109948;0.44916540212443107;0.756886500823016;0.806999032090898;0.81630344881171;0.160589024521915;0.33073235743387397;0.133625025491891;0.9373584905660379;0.886313445565486;0.937784531278072;0.9373584905660379;0.6052631578947371;0.901352144267356;0.935199458615773;0.937784531278072;0.20570535194575398;0.39951789832031703
0;0.296806829659662;0.8600294502617809;0.709560534060418;0.8119458796538879;0.86002945026178;0.44006069802731396;0.746929080986394;0.8024715944375209;0.8119458796538879;0.15217915726317802;0.315547655624182;0.130411335214346;0.921509433962264;0.886302439656887;0.926348267041957;0.921509433962264;0.657894736842105;0.901342453937943;0.923325333663393;0.9263482670419579;0.22882862941125798;0.418105955052867
0;0.290337249387386;0.8671465968586389;0.7159444249813149;0.818725572670565;0.8671465968586389;0.42943854324734493;0.7527390653010749;0.8095165950728;0.818725572670565;0.15110830151131197;0.31496002342185;0.135729215277972;0.9088050314465409;0.8795575185940642;0.9152709840187259;0.9088050314465409;0.6842105263157899;0.8953985097570041;0.911834983901535;0.9152709840187271;0.24199164826320899;0.42893811443109797
1;0.278690754149948;0.8887434554973829;0.726711068701614;0.835982589734308;0.8887434554973821;0.426403641881639;0.7625104039478271;0.827474663765795;0.8359825897343071;0.148950443854691;0.31080058815846;0.150865458569515;0.9072955974842779;0.8687637060174929;0.911119096308941;0.907295597484277;0.6798245614035091;0.8858644958713799;0.9075310757439609;0.911119096308942;0.23347290961257897;0.41343972181051997
1;0.283918967565072;0.879417539267016;0.7239970433840041;0.8292746227397199;0.879417539267016;0.42943854324734493;0.7600504991913959;0.820489800550766;0.8292746227397199;0.14469532864048198;0.304791378439857;0.17938163531069398;0.8969811320754741;0.845067148775;0.896945056030173;0.896981132075472;0.662280701754386;0.864837680587505;0.8928495649476221;0.896945056030173;0.221347988519847;0.39781464951627205
1;0.28927660119025106;0.88473494764398;0.7177505722583741;0.830110026297975;0.8847349476439791;0.43399089529590296;0.7543806405979421;0.8213593840786091;0.830110026297975;0.14236399159991903;0.299686274536734;0.198844090063732;0.8820125786163541;0.8310642217388939;0.8821556092500471;0.8820125786163521;0.614035087719298;0.852349561886892;0.8775495933992271;0.8821556092500491;0.190679599332972;0.367398618966566
1;0.288534442698285;0.8802356020942421;0.7200335401822979;0.8282510413777701;0.8802356020942409;0.438543247344461;0.756454205586243;0.8194244581208001;0.8282510413777691;0.142701254192839;0.29920446414470503;0.19101567125221;0.880503144654088;0.8386439483437769;0.883222142159261;0.880503144654088;0.6052631578947371;0.859115168816478;0.878652294051364;0.8832221421592601;0.180916441118508;0.361089752224769
1;0.29196706503002395;0.8792539267015709;0.7172244143819929;0.8265763506121351;0.8792539267015709;0.44157814871016704;0.7539025249640309;0.8176817220787491;0.826576350612136;0.140009207923645;0.294843852431998;0.176653431380852;0.893710691823902;0.853206072806777;0.896896918654397;0.893710691823899;0.592105263157895;0.872074620510691;0.89279973445168;0.896896918654397;0.16988546294870097;0.35280433950192397
1;0.305577506831641;0.867964659685865;0.7063831220110559;0.8155492678152341;0.867964659685864;0.438543247344461;0.7440327788849491;0.806215282685134;0.8155492678152328;0.134844845329691;0.284354656730977;0.17949452422951;0.9001257861635241;0.852903769625304;0.901441532186646;0.900125786163522;0.5745614035087719;0.8718061010295061;0.897505099588657;0.901441532186646;0.157821012687359;0.33952174383924605
1;0.298593457686543;0.875;0.7152962223791891;0.823250327751772;0.875;0.43399089529590296;0.752149689175518;0.814221589797838;0.823250327751773;0.129055017534042;0.276979820043772;0.19167726218036701;0.8955974842767299;0.841597182260052;0.894960001121899;0.8955974842767299;0.583333333333333;0.861747468554973;0.89079486070769;0.8949600011219001;0.16225780255351502;0.341303952501885
1;0.297951444567697;0.87074607329843;0.716783189610766;0.821235546677085;0.8707460732984291;0.427921092564492;0.753501524064877;0.8121262379029208;0.8212355466770859;0.130538932061029;0.278759979025461;0.20773061731057899;0.89622641509434;0.82912597549836;0.8918693527061609;0.89622641509434;0.5745614035087719;0.8506172755288659;0.8875964662141199;0.8918693527061601;0.158193047222586;0.33091723097565806
1;0.291634213984401;0.870582460732985;0.72228290030524;0.8232479258143871;0.870582460732984;0.41881638846737496;0.75849573693895;0.814219091507383;0.823247925814386;0.134275404295174;0.28620013977666;0.225763674342514;0.8967295597484269;0.814472815941371;0.888066565831169;0.896729559748428;0.543859649122807;0.8374916955226559;0.883662268187729;0.88806656583117;0.14831549771244298;0.31952682131612
1;0.299108548797782;0.8565935863874351;0.71552281328824;0.812149630368832;0.8565935863874351;0.415781487101669;0.752355730425902;0.802683235328968;0.812149630368832;0.13620791693518;0.28892898018806296;0.238371541788483;0.888553459119498;0.8046197339459659;0.8793558851740941;0.8885534591194971;0.530701754385965;0.828636299335341;0.8746554060462071;0.8793558851740941;0.140345342205294;0.307793898493959
1;0.29854367934078;0.861420157068062;0.7143059279420121;0.8146153767241301;0.8614201570680631;0.423368740515933;0.7512490259248149;0.8052448752924789;0.8146153767241301;0.138385096532075;0.291786882867959;0.229985476229327;0.8927044025157241;0.8104324124749941;0.884009152948271;0.8927044025157229;0.557017543859649;0.833863290939109;0.8794660581988041;0.884009152948271;0.149010486205686;0.319444661340039
1;0.3108091065441789;0.849231020942408;0.702019670829256;0.8024795751228181;0.849231020942408;0.42943854324734493;0.7400504318893201;0.792644390481371;0.8024795751228181;0.139453542545606;0.291802072645264;0.235948408641449;0.9015094339622649;0.807403465121222;0.889510139268769;0.901509433962264;0.539473684210526;0.831140578091703;0.8851555756306371;0.889510139268768;0.136912648675108;0.30528167290284397
1;0.323907243312338;0.831560863874346;0.690108782677004;0.7871443597704829;0.831560863874346;0.430955993930197;0.729150574458143;0.7767481252114621;0.7871443597704829;0.13935784248224697;0.290770608469909;0.23433065214772197;0.8955974842767299;0.80992377309911;0.885954882153272;0.8955974842767299;0.517543859649123;0.8334062337710941;0.881478165401883;0.885954882153271;0.12686024379916602;0.295744549074253
1;0.331671725187062;0.822643979057591;0.6828380460170831;0.778914776780917;0.822643979057592;0.43399089529590296;0.722475777013857;0.7682294901060559;0.778914776780917;0.138795837375027;0.28945798888023605;0.252020641373356;0.890566037735851;0.797713772232198;0.87884500492991;0.8905660377358492;0.49122807017543896;0.822415352561308;0.874127363532757;0.87884500492991;0.10907589443710301;0.270157641889705
1;0.324781860821742;0.8203534031413611;0.6878595016480671;0.779459448645005;0.8203534031413611;0.43399089529590296;0.7270873804486478;0.768793033053097;0.779459448645005;0.14514074691651901;0.302297519226527;0.26371744764974503;0.892955974842768;0.790347279641048;0.878476021947746;0.8929559748427671;0.451754385964912;0.8157665188263199;0.873745999495265;0.8784760219477479;0.0909864276997677;0.248688417937785
1;0.31806401213237395;0.8160176701570679;0.6930964803901429;0.77884388748374;0.8160176701570679;0.42943854324734493;0.731888710674054;0.768156147436254;0.77884388748374;0.15146071252557902;0.31529088640145597;0.263626155297131;0.890817610062895;0.7892876726784979;0.8766285986314921;0.8908176100628928;0.421052631578947;0.814809029165663;0.871836768154777;0.8766285986314909;0.085561717935926;0.25096967211336396
1;0.331873949912404;0.7996564136125649;0.6805772851864239;0.7640564147962371;0.7996564136125659;0.42488619119878596;0.720397014925812;0.752870535733405;0.7640564147962371;0.150111809501141;0.31242751711823497;0.263000242234083;0.8792452830188691;0.788074366891375;0.8679175405049391;0.879245283018868;0.37719298245613997;0.8137123087514799;0.8628383450488579;0.867917540504938;0.0844295082927596;0.256588093264505
1;0.33637067136669396;0.797447643979058;0.6749980483778549;0.76055483563034;0.797447643979058;0.426403641881639;0.715260187635892;0.749254974096297;0.7605548356303409;0.152447949188136;0.314626242531432;0.263722741174001;0.86993710691824;0.7866239367822121;0.8607756231399519;0.869937106918239;0.35964912280701794;0.8124007661797671;0.8554658428024671;0.860775623139953;0.0867888062069224;0.25963090705918396
1;0.333136279600155;0.803910340314136;0.6787732162494979;0.7659468381996651;0.803910340314136;0.42943854324734493;0.718737051395673;0.754823128173721;0.7659468381996651;0.15039680731879598;0.310718273165079;0.267554192363638;0.872955974842768;0.782532886463564;0.861791937677524;0.8729559748427671;0.34649122807017496;0.808698620170602;0.856514694370279;0.8617919376775249;0.0866251874264172;0.262203532785559
1;0.340987367237337;0.803092277486912;0.6721414031694419;0.762884834760208;0.8030922774869108;0.430955993930197;0.712626336879465;0.751660649355655;0.7628848347602071;0.145289554584487;0.30114368172215195;0.24865616650604602;0.8675471698113209;0.7936175263487479;0.861041586814766;0.8675471698113209;0.364035087719298;0.818719837463742;0.8557403123889871;0.861041586814766;0.109032268971017;0.297548705345516
1;0.341345037530151;0.806691753926703;0.6725471187556429;0.7652323217576791;0.806691753926702;0.430955993930197;0.7130005641720429;0.75408506179343;0.7652323217576801;0.140233500179818;0.294465287563525;0.22195370442128098;0.880503144654088;0.8146976269249929;0.8764077126074129;0.880503144654088;0.33771929824561403;0.8376934652093341;0.8716085123346551;0.8764077126074141;0.124545029008777;0.321007131266614
1;0.341591572749247;0.8044011780104721;0.6739200083064241;0.764369153846418;0.8044011780104711;0.42943854324734493;0.714266522746037;0.753193528999442;0.764369153846418;0.136086069202872;0.289487126261761;0.22825560561363298;0.858867924528302;0.806324294527808;0.8583921928922059;0.858867924528302;0.35526315789473706;0.830169969466494;0.8530064667124251;0.858392192892207;0.13532068402800201;0.33268612265082104
1;0.34191895302989;0.80988219895288;0.6733668279866801;0.767490889470091;0.80988219895288;0.427921092564492;0.7137564985572091;0.756418286629578;0.767490889470091;0.133547949763343;0.285525577822257;0.236467458875752;0.858616352201258;0.798904104414767;0.8560947586465809;0.858616352201258;0.35964912280701794;0.8234884551647379;0.8506363032844729;0.856094758646582;0.13512773892383;0.332238795193698
1;0.354753706661724;0.8071007853403149;0.6591887518341429;0.760315248242989;0.807100785340314;0.427921092564492;0.700652000505777;0.7490076433411992;0.760315248242989;0.131971194132201;0.281543157237755;0.24590420320263398;0.8571069182389949;0.791657462287968;0.8529372866305749;0.857106918238994;0.34649122807017496;0.816950048215404;0.8473796392593579;0.8529372866305749;0.128364045472905;0.322912946378579
1;0.368036510735433;0.7973658376963351;0.645978573110527;0.7492716997520129;0.7973658376963351;0.423368740515933;0.688385242837974;0.737614903516023;0.7492716997520129;0.13083052413454702;0.27795608860475396;0.253611371355995;0.847169811320756;0.7862132330519781;0.8442018526250491;0.8471698113207551;0.31140350877193;0.812029294223596;0.8383743845531891;0.8442018526250501;0.11982083131222401;0.310631866034906
1;0.3747616836511029;0.7981020942408371;0.638533608004965;0.7468360724852121;0.798102094240838;0.41729893778452204;0.681447510728384;0.735104300057532;0.746836072485213;0.12879763159892899;0.274182637866912;0.25671023016155703;0.8533333333333349;0.785121570151217;0.8483452674223929;0.8533333333333329;0.33771929824561403;0.8110417052369809;0.8426449384271891;0.848345267422391;0.116903542551781;0.303223345488773
1;0.36882002143328996;0.807509816753927;0.6435156341589631;0.7544992477806909;0.807509816753927;0.41881638846737496;0.6860920685049761;0.743005857420422;0.7544992477806909;0.129346518429877;0.27542334223528897;0.284752371456838;0.8637735849056609;0.763418083765726;0.849701391728646;0.86377358490566;0.31140350877193;0.791344987650266;0.844043005325433;0.8497013917286479;0.10321455175985901;0.281733313427832
1;0.376539419615532;0.804564790575917;0.636591099987881;0.75002289705912;0.8045647905759159;0.42185128983308;0.679634424895833;0.7383893735572371;0.75002289705912;0.1263656861133;0.26880923305975896;0.286156691371032;0.848930817610063;0.760766714488625;0.838209673885725;0.848930817610063;0.293859649122807;0.78893057750156;0.8322010290801128;0.838209673885725;0.102235622026629;0.284195354775775
1;0.38052593925251393;0.8015379581151829;0.633613430232268;0.7470241063989301;0.8015379581151829;0.420333839150228;0.6768527880501769;0.735298096017154;0.747024106398929;0.12352246309735698;0.26410093790680395;0.302085939279854;0.838364779874215;0.7469037507502391;0.826605820132723;0.8383647798742141;0.27192982456140397;0.7762772149523801;0.8202553732545258;0.826605820132723;0.0978762055602576;0.276659679133829
1;0.361125834713666;0.812745418848169;0.652413028335176;0.761132340789264;0.812745418848168;0.41881638846737496;0.694367075025431;0.7498511732685781;0.761132340789263;0.127740620267605;0.273809125105917;0.312080283169225;0.8291823899371079;0.7367344592745609;0.8170539818545941;0.8291823899371071;0.258771929824561;0.7669636527090821;0.8104311302360201;0.817053981854595;0.0978702851577415;0.278758492369489
1;0.36250086943964704;0.817653795811519;0.6495659123899681;0.7630217004061659;0.817653795811518;0.41274658573596396;0.691721857683179;0.751801981215711;0.7630217004061659;0.12832374673381403;0.274200621566583;0.31179936915287604;0.8374842767295619;0.7353840550593409;0.8226749951109971;0.83748427672956;0.307017543859649;0.765724857905148;0.8162114677652951;0.8226749951109991;0.10896689577586001;0.29230933040178003
1;0.36522334380592;0.8148723821989541;0.6466372643816469;0.760194069021823;0.8148723821989531;0.409711684370258;0.688998204179575;0.748882550369105;0.760194069021823;0.128979016800459;0.27485752683249;0.301887016142237;0.8183647798742159;0.7402943078315151;0.8102460339323442;0.8183647798742141;0.33333333333333304;0.770227004189683;0.8034339641445469;0.8102460339323442;0.120958701946927;0.31159848860312
1;0.378871081475936;0.808491492146598;0.63154224655218;0.750461467953561;0.8084914921465971;0.40819423368740504;0.674916272035435;0.738841564129688;0.7504614679535601;0.128831849005506;0.273004677896973;0.30231494570888595;0.8153459119496881;0.739867645807064;0.807939840618092;0.815345911949686;0.34649122807017496;0.7698360526322859;0.801064604434271;0.807939840618093;0.12114003477331199;0.311223018459189
1;0.385310646678092;0.8074280104712049;0.624431726634422;0.7470583883663441;0.807428010471204;0.409711684370258;0.66825749679104;0.735333428982168;0.7470583883663441;0.130317003358809;0.27210078996691;0.30092727108002304;0.821886792452832;0.7415924913604071;0.813165667543984;0.8218867924528299;0.385964912280702;0.7714162420032891;0.806434242230863;0.813165667543984;0.12230481336107402;0.310723306272424
1;0.393085069025361;0.802192408376963;0.617584377484347;0.7412104003861859;0.802192408376963;0.409711684370258;0.6618295994566961;0.7293082662007;0.7412104003861859;0.126710899581428;0.265775527177868;0.311514937268067;0.819119496855347;0.731927707946448;0.8083967348907579;0.819119496855346;0.381578947368421;0.762552002272927;0.801533975557338;0.808396734890759;0.118248650790447;0.3075530654601
1;0.38395122791837394;0.80660994764398;0.626129745261454;0.7472173301845171;0.8066099476439791;0.409711684370258;0.6698491301904951;0.735497245456323;0.7472173301845171;0.130165102536026;0.272424315392454;0.300517234259027;0.819371069182391;0.7426694200600891;0.811653931887368;0.81937106918239;0.399122807017544;0.772402460642145;0.8048806559622191;0.811653931887368;0.11984098228190301;0.30578248551785997
1;0.392167801363812;0.7878763089005228;0.618312299243588;0.732759011434876;0.7878763089005241;0.409711684370258;0.662513659682053;0.720608326587949;0.732759011434876;0.133928225171344;0.278473992448427;0.291756640170469;0.821886792452832;0.7479943890194941;0.814997786574436;0.8218867924528299;0.447368421052632;0.7772744850019909;0.8083173527468659;0.814997786574437;0.134841416750064;0.32399073771261105
1;0.406991887109338;0.7865674083769642;0.6010069320615129;0.7252404683647651;0.786567408376963;0.409711684370258;0.64620369486458;0.7128761176280799;0.7252404683647651;0.132833591888419;0.27504996555037897;0.271809144236859;0.8257861635220141;0.7624120267781679;0.8219424325072329;0.825786163522013;0.49122807017543896;0.7904290557386421;0.8154579824435909;0.8219424325072329;0.156859544628016;0.35097641259042894
1;0.4131399299507129;0.783785994764397;0.5965241807605179;0.7218004515589571;0.7837859947643979;0.41274658573596396;0.641962551219004;0.709340679734867;0.7218004515589571;0.127272066512715;0.265384121181038;0.253270284640517;0.826289308176101;0.77494094761724;0.8258887381512908;0.826289308176101;0.49561403508771895;0.8018172409923421;0.819517560427514;0.825888738151292;0.16879884323706798;0.37515252292742296
1;0.423726125069374;0.7677519633507858;0.587341901608572;0.7084372960190821;0.7677519633507851;0.41274658573596396;0.6332540788262571;0.695620782350363;0.7084372960190809;0.126645380453386;0.26334181723563804;0.24869327042211603;0.830817610062895;0.78072500613904;0.8308152450758042;0.8308176100628929;0.456140350877193;0.807061262848193;0.824587411530777;0.830815245075803;0.157427253509534;0.36489774535819003
1;0.43309538060188896;0.76660667539267;0.577468567886212;0.703893174054308;0.76660667539267;0.41122913505311104;0.623858317893798;0.6909603999548879;0.7038931740543071;0.12362772627964;0.25716454898451296;0.25786228746267004;0.8490566037735849;0.776860034614711;0.842895788110417;0.8490566037735849;0.421052631578947;0.8035580849154941;0.837028559303916;0.8428957881104191;0.1400584651779;0.34191087556148
1;0.428130360974062;0.7760962041884829;0.581270045461454;0.7111713347759001;0.776096204188482;0.41274658573596396;0.627479852181803;0.698426005633288;0.7111713347759001;0.12249729923552001;0.257394341851786;0.256168646047508;0.847295597484278;0.779354845662183;0.8423349426201411;0.8472955974842771;0.381578947368421;0.8058197912716409;0.8364506862945241;0.8423349426201421;0.127205245068953;0.331901295695324
1;0.43012683301034993;0.77634162303665;0.579452531884818;0.710613991206985;0.7763416230366491;0.41274658573596396;0.6257489870919771;0.69785407556829;0.710613991206985;0.119991567871329;0.254014936093955;0.252198256871227;0.8554716981132071;0.7838779858199159;0.84953612375541;0.855471698113208;0.34649122807017496;0.8099163144382221;0.843872617178019;0.8495361237554091;0.12362958867619801;0.32849348894386704
1;0.43058130480972;0.7791230366492149;0.5798904016404169;0.7124839434893591;0.7791230366492149;0.40819423368740504;0.626166084925446;0.6997731195367739;0.7124839434893591;0.116370951315049;0.248031966224994;0.246662934385364;0.858616352201258;0.7888818420957242;0.853236550732448;0.858616352201258;0.34649122807017496;0.8144422353800941;0.847688266847128;0.853236550732448;0.12422467082550699;0.329554014448808
1;0.44553447355408293;0.7613710732984291;0.566871237165151;0.6965640011258539;0.7613710732984291;0.40364188163884707;0.6137364139286279;0.683449111251015;0.6965640011258539;0.11230574013612199;0.24052582177849502;0.23854150587231;0.8637735849056609;0.7953374044884799;0.8588046546998951;0.86377358490566;0.39035087719298206;0.82027196963091;0.853432035222123;0.8588046546998951;0.13202480611460302;0.33781610227368497
1;0.45698327387241205;0.7501636125654451;0.555671780789933;0.685342596967431;0.7501636125654451;0.4051593323217;0.602997094820739;0.671961793287165;0.685342596967431;0.11159141258715599;0.237626003292062;0.24308306529256998;0.878867924528303;0.793350439069027;0.8691476446945791;0.878867924528302;0.40789473684210503;0.818478734184923;0.8641086208365419;0.8691476446945791;0.13111803699899002;0.33118968055896303
1;0.45029184718492404;0.7508998691099471;0.5644595797256401;0.689222386908158;0.750899869109948;0.409711684370258;0.611427530987062;0.675931755270322;0.689222386908159;0.11081418337103699;0.236373418588898;0.25942566881506396;0.8766037735849058;0.7834582311780072;0.8646928136630649;0.8766037735849058;0.37280701754386003;0.809536366842303;0.859508944574022;0.8646928136630649;0.112145722915759;0.301242017238243
1;0.44232170201236204;0.760553010471204;0.572476919522391;0.698249039997553;0.760553010471204;0.41122913505311104;0.6190954287836861;0.685175429955787;0.6982490399975539;0.11017382946685199;0.23609583074600898;0.27416412351019;0.8704402515723281;0.7706369419845781;0.8565817061071209;0.8704402515723271;0.37719298245613997;0.797909601120566;0.8511386268322751;0.856581706107122;0.11200285337750901;0.296671506661257
1;0.44799197002852903;0.756380890052356;0.565559614185553;0.6930020619087149;0.756380890052356;0.41274658573596396;0.612480937004071;0.6798010718379849;0.6930020619087149;0.11229031444974;0.238684485650131;0.26902375535606304;0.871194968553459;0.7743869949375309;0.8581966676481159;0.871194968553459;0.4166666666666671;0.8013145659136941;0.8528047335756279;0.8581966676481159;0.120720728622455;0.30444344158616
1;0.442912261085063;0.7641524869109949;0.571751081465583;0.700166019756395;0.7641524869109949;0.41122913505311104;0.6184021411919179;0.6871398000511079;0.700166019756395;0.10903866940313699;0.233430836348022;0.26706476807910895;0.875345911949687;0.776053478846366;0.8616731775281959;0.8753459119496859;0.43859649122807004;0.802826554601115;0.856392127424615;0.861673177528195;0.126313715392041;0.30801925147248405
1;0.44588726615445207;0.760553010471204;0.56886630068865;0.6968416712650141;0.760553010471204;0.40667678300455196;0.615644933005796;0.6837335594643101;0.6968416712650141;0.108507858536206;0.23287525456747896;0.273944486113485;0.874213836477987;0.7720166697873508;0.8597039187896949;0.874213836477987;0.42543859649122795;0.799162777431325;0.854359927279625;0.8597039187896949;0.11422977448623199;0.292601428061591
1;0.446870508282481;0.7610438481675391;0.56576225882702;0.6959316308825689;0.7610438481675391;0.40819423368740504;0.6126749460959611;0.68280134022576;0.69593163088257;0.11256688705772501;0.23951411801663802;0.281602544516143;0.8787421383647809;0.7679869006299059;0.8618300964192641;0.8787421383647801;0.385964912280702;0.795501272413261;0.856554076536427;0.861830096419265;0.0963512213619628;0.272994533036668
1;0.439741912634039;0.7627617801047121;0.5709673470463951;0.699010626027039;0.7627617801047121;0.402124430955994;0.617653349724888;0.685955788824504;0.699010626027039;0.118788644154187;0.25183809876911895;0.27942144607171004;0.872578616352203;0.7707832716594781;0.85816979240769;0.8725786163522009;0.37719298245613997;0.798042532010888;0.8527770053157891;0.85816979240769;0.0879821796948703;0.264927126269881
1;0.433680805165021;0.755153795811518;0.580716641265483;0.698161608979021;0.755153795811518;0.39757207890743607;0.6269529505122701;0.685085848398025;0.6981616089790219;0.118282726583231;0.25101873794684;0.289169213537301;0.8657861635220151;0.760952607235231;0.850453643171348;0.865786163522013;0.35964912280701794;0.7890999151282639;0.844818592883241;0.850453643171348;0.0876254034993046;0.26700489452695103
1;0.431497030091291;0.755726439790577;0.579831189278979;0.698166311467721;0.755726439790576;0.39453717754172996;0.626109685345589;0.6850906665296179;0.69816631146772;0.12409478488203698;0.26276257221516697;0.30413158481077696;0.855345911949686;0.7482566946854209;0.839277507973028;0.855345911949686;0.33333333333333304;0.777514289119099;0.8333009167203821;0.839277507973028;0.0823115472879521;0.257992051324258
1;0.43186446080054297;0.754499345549738;0.5794132936633779;0.697253804327172;0.754499345549738;0.39453717754172996;0.6257116070771711;0.684155770551294;0.697253804327173;0.12339194896169199;0.26276071080882396;0.32118497187211403;0.8477987421383659;0.7335298163068878;0.8296091938196941;0.847798742138365;0.302631578947368;0.764023093516448;0.8233460695794471;0.8296091938196941;0.074890890649869;0.24847114761664002
1;0.434339577070286;0.747136780104713;0.578467490272448;0.6923873703586629;0.7471367801047121;0.396054628224583;0.624810434862768;0.67917168109251;0.6923873703586629;0.121977799481101;0.26054335845174803;0.337204647551476;0.830314465408805;0.7189704487857491;0.8127899027175601;0.830314465408805;0.27192982456140397;0.7506295619280849;0.806048055887312;0.8127899027175601;0.0683077233469654;0.240282755100565
1;0.43822232869472494;0.7425556282722511;0.574366899738355;0.6879889068662021;0.7425556282722511;0.396054628224583;0.620899801189741;0.6746694047930061;0.6879889068662021;0.123211305445216;0.26166359100132897;0.34957186557956704;0.8225157232704421;0.7062923033462621;0.803513527485805;0.82251572327044;0.285087719298246;0.738920884337388;0.796518375397238;0.803513527485805;0.0726939275572182;0.245458905978816
1;0.436133083663091;0.7409195026178008;0.577821064380753;0.6883373130552011;0.7409195026178008;0.39908952959028793;0.6241943368526479;0.6750259465308741;0.6883373130552;0.12253805143465302;0.260262051685057;0.368871146638313;0.8008805031446551;0.6865461295443609;0.782183427500669;0.8008805031446541;0.280701754385965;0.7205987079635591;0.7746347505019221;0.7821834275006702;0.0760514953416518;0.249397596927266
1;0.44437461334424705;0.7289757853403149;0.571172024001532;0.678444734356279;0.728975785340314;0.40667678300455196;0.617848921553277;0.664908227084609;0.6784447343562778;0.121226491560691;0.25636865662751;0.375489904529304;0.7973584905660391;0.6792294627341511;0.7775319315693979;0.7973584905660379;0.289473684210526;0.713782794116251;0.769867900962693;0.7775319315693979;0.0836088493937194;0.257127775895511
1;0.45589198973701;0.7260307591623041;0.558762244847946;0.671794619008599;0.7260307591623041;0.4051593323217;0.6059649573717679;0.6581135908428379;0.671794619008599;0.11862831639471302;0.250587362720952;0.36646726640839206;0.8033962264150959;0.686611159490745;0.7840243729728299;0.8033962264150941;0.315789473684211;0.7206592216953309;0.776521879606307;0.7840243729728299;0.0941553942280038;0.268083528014186
1;0.464602307297222;0.7198952879581151;0.5502036147495121;0.6646954794782789;0.7198952879581151;0.39453717754172996;0.5977376409537271;0.65086622868066;0.6646954794782789;0.114763677741288;0.245366355554617;0.3742537189293571;0.78867924528302;0.678281302891463;0.770971875695736;0.7886792452830191;0.307017543859649;0.7128984534595602;0.7631484193284459;0.7709718756957349;0.0956710098275225;0.269840225797239
1;0.46660028119097396;0.7248854712041891;0.5486778686673089;0.667150185167677;0.724885471204188;0.38391502276176;0.59626825042937;0.653371478659603;0.667150185167678;0.10882022341204099;0.236649278997157;0.388844349275742;0.7861635220125791;0.667108338404197;0.7659389687513879;0.7861635220125791;0.280701754385965;0.7024588755072979;0.757995785304505;0.7659389687513891;0.0848834786812579;0.25339234591113796
1;0.474633025571529;0.720549738219897;0.5429401292668;0.6622528104701451;0.7205497382198951;0.37329286798179107;0.590735065552739;0.648374005501949;0.6622528104701451;0.10130202055535101;0.223341755034415;0.405517399536201;0.77735849056604;0.652597807553052;0.7553855902950409;0.7773584905660379;0.25;0.688849082311077;0.747198642038614;0.75538559029504;0.0776450647869486;0.24276869166788298
1;0.477548571011992;0.71482329842932;0.53938332116572;0.657356892152946;0.7148232984293191;0.370257966616085;0.587299185260999;0.6433809935772521;0.657356892152946;0.103616692467257;0.22727840980965303;0.389184502994991;0.781509433962266;0.664096977825578;0.7617007868615941;0.781509433962264;0.302631578947368;0.69963927069251;0.7536585228633571;0.7617007868615941;0.0941316928990589;0.26813317733581604
1;0.4707517360193929;0.7236583769633509;0.5440624901312671;0.664593701517205;0.7236583769633509;0.380880121396055;0.591818332428389;0.650762371177437;0.664593701517204;0.11026381156568499;0.23643015451407898;0.341418766470372;0.7955974842767299;0.699080837502182;0.781954464904601;0.7955974842767299;0.40350877192982504;0.7322416783641841;0.7744000649403879;0.7819544649046021;0.141620255701151;0.334345192826073
1;0.461145516768582;0.73470222513089;0.555328807302575;0.6757539674002211;0.73470222513089;0.38998482549317204;0.6026675210857471;0.6621583230903431;0.6757539674002211;0.10882647029422698;0.23225797426687803;0.295406020528472;0.7981132075471701;0.732988325878655;0.793501233457917;0.7981132075471701;0.4868421052631579;0.763525960253446;0.786241237468032;0.7935012334579159;0.185792047915845;0.390410419037986
1;0.45955507711396903;0.7335569371727749;0.5567005350205639;0.6755898039064561;0.7335569371727749;0.39301972685887704;0.603985408860148;0.6619905807311851;0.6755898039064561;0.11188534391103301;0.23619949655737602;0.29593362133681;0.79496855345912;0.7313096720798751;0.7907447085569841;0.79496855345912;0.47807017543859703;0.761984328365795;0.783413356823322;0.7907447085569841;0.188303272510233;0.396270170850998
1;0.452565510964796;0.740019633507854;0.564717017295345;0.6826722296548371;0.740019633507853;0.39301972685887704;0.6116740939113411;0.6692304480219959;0.6826722296548371;0.11036241417378599;0.234099180061002;0.280778079701906;0.7945911949685541;0.743987654944489;0.79410674273648;0.7945911949685541;0.46491228070175394;0.773609250258096;0.7868625112319549;0.79410674273648;0.196379963426335;0.4050846046246421
1;0.44198250579199;0.747054973821989;0.575195467497593;0.691061104917711;0.74705497382199;0.38998482549317204;0.621690451226663;0.6778138602299281;0.69106110491771;0.11290961447091;0.239224195758867;0.24644673932346303;0.795471698113208;0.767208333695804;0.801398175616351;0.795471698113208;0.539473684210526;0.7947933801992599;0.7943463283765391;0.8013981756163521;0.24232670085328797;0.458843047838741
1;0.438986566363383;0.758589659685864;0.5777367689430309;0.6990992670815339;0.758589659685864;0.386949924127466;0.624113985697324;0.686046619527495;0.6990992670815339;0.111048197722056;0.23520653662374302;0.204582964892807;0.7981132075471701;0.794471681032175;0.811114648952139;0.7981132075471701;0.631578947368421;0.819490775258976;0.804326492624283;0.811114648952139;0.30063069761013106;0.528401872218396
1;0.430031741639295;0.7633344240837691;0.5871718736353421;0.7056731194306;0.7633344240837701;0.385432473444613;0.633092555700397;0.6927855795819721;0.7056731194306;0.112641493641564;0.23862966385236603;0.190736911715407;0.8070440251572341;0.8057080401539021;0.8207807864569839;0.8070440251572328;0.662280701754386;0.829615580194126;0.8142632561174971;0.820780786456985;0.31230668732148903;0.540095759565217
1;0.43650606889942295;0.753354057591624;0.5812465263908579;0.69726878426228;0.7533540575916229;0.385432473444613;0.627457461565697;0.684171117192664;0.697268784262281;0.11240998078453099;0.238125801391508;0.19191370374957603;0.8036477987421401;0.8041502136348391;0.817882220675703;0.803647798742138;0.6798245614035091;0.82821372491044;0.8112826691142551;0.817882220675703;0.315268466398138;0.5419944310161311
1;0.447829665511574;0.7403468586387428;0.570623496375275;0.685178275548021;0.740346858638744;0.38239757207890707;0.617324762838687;0.671793694029371;0.685178275548021;0.110234349625769;0.234401313843624;0.19541683924482897;0.806289308176102;0.802569869813744;0.819338042271525;0.806289308176101;0.6798245614035091;0.826790995150073;0.8127795932867071;0.8193380422715258;0.308034140769315;0.532965118286017
1;0.442185509630299;0.7473821989528809;0.575339842202757;0.691317345769469;0.74738219895288;0.38239757207890707;0.6218281947926619;0.678076180727759;0.691317345769469;0.11216211352443199;0.23782972521478002;0.23106904247342602;0.8070440251572341;0.7741138691628701;0.8117407466660309;0.8070440251572328;0.657894736842105;0.801066693952484;0.8049698686243092;0.811740746666033;0.292666919213962;0.511428911441567
1;0.445489232459202;0.738547120418848;0.573944477443454;0.6853750422107869;0.738547120418848;0.38391502276176;0.620496619394252;0.67199498486036;0.6853750422107869;0.11109162507239399;0.23518717738514003;0.242890801454367;0.8052830188679241;0.7644396755330709;0.807698086192677;0.8052830188679251;0.6447368421052629;0.792274798435796;0.8008162556722379;0.8076980861926751;0.29234362789687107;0.506959457886949
1;0.446663983781109;0.741573952879582;0.572665808510431;0.686725244187297;0.741573952879581;0.385432473444613;0.61927581721914;0.67337636103295;0.686725244187298;0.10827298465182;0.23129287318945102;0.26037938551926504;0.8065408805031461;0.752427168973815;0.805167577111802;0.806540880503145;0.5964912280701751;0.7813246185083459;0.798217032706487;0.805167577111803;0.26864937847620896;0.48144331059569895
1;0.44842857817432596;0.7387107329842929;0.5719840919476611;0.6847097147453721;0.7387107329842929;0.38846737481031896;0.618624722019499;0.671314379160546;0.6847097147453721;0.10516275876363301;0.22702867288602396;0.283433554097067;0.8035220125786179;0.7353488623824929;0.798091112730667;0.803522012578616;0.583333333333333;0.765692567495895;0.7909514249110692;0.798091112730668;0.24973297353275198;0.455732587677788
1;0.45579506149215504;0.7258671465968589;0.565049733586583;0.6741527096712139;0.7258671465968589;0.38998482549317204;0.611992721545667;0.660522299740606;0.6741527096712139;0.10585289531074099;0.22810363938557895;0.276589291455014;0.7978616352201271;0.73824360350146;0.794825792834312;0.7978616352201259;0.618421052631579;0.7683475047288092;0.7876003240589671;0.794825792834312;0.271453051049587;0.47765485422088705
1;0.46488201087797204;0.718422774869109;0.556380434446021;0.666212206555498;0.71842277486911;0.386949924127466;0.603677931154359;0.6524140980671801;0.666212206555498;0.10252115566539699;0.222759137185919;0.267210354749558;0.792075471698114;0.743085432747693;0.79202845258348;0.792075471698113;0.6447368421052629;0.7727833517907271;0.784730248236242;0.7920284525834821;0.290911764286974;0.5000030614563901
1;0.47268836945980797;0.7154777486911;0.548106204481547;0.6611730894790611;0.7154777486911;0.38239757207890707;0.5957174896274611;0.647272616309697;0.6611730894790611;0.10082448679607599;0.219023544398054;0.273162734282122;0.7986163522012579;0.7383800188418509;0.79541086928059;0.7986163522012579;0.6491228070175439;0.768472565325077;0.7882007011633009;0.795410869280592;0.293605954088016;0.499880357397307
1;0.47375876535403705;0.7066426701570692;0.5469046691808279;0.655299666163348;0.7066426701570679;0.38239757207890707;0.5945595126182789;0.6412838571891519;0.6552996661633471;0.10317748961188199;0.22471082113111499;0.288421676690999;0.810440251572328;0.728807157169648;0.801222433359787;0.810440251572327;0.635964912280702;0.7596847118432959;0.7941658937581679;0.801222433359787;0.28000649197479105;0.478546940725068
1;0.47496318433514;0.70410667539267;0.54570881032701;0.653280275753474;0.70410667539267;0.386949924127466;0.5934064986031049;0.639225801201749;0.653280275753474;0.10471069128580698;0.22599001274141398;0.305307835390166;0.8071698113207559;0.7156613753748271;0.7950881801708779;0.807169811320755;0.635964912280702;0.7475776522936199;0.7878695694805892;0.795088180170879;0.275352466743422;0.465981216907849
1;0.482400518128255;0.712369109947645;0.5365355706810581;0.6547397566225611;0.712369109947644;0.385432473444613;0.5845449996103571;0.640713176269381;0.6547397566225611;0.0999581384092139;0.21734739582528897;0.340655182923073;0.801006289308177;0.687194514996145;0.7824606073188961;0.8010062893081759;0.6052631578947371;0.721202012654747;0.774918864700559;0.782460607318899;0.254813087457258;0.439019868969796
1;0.480843047456494;0.71580497382199;0.53838889239125;0.6575679772483249;0.71580497382199;0.38391502276176;0.586337758683858;0.643596203455064;0.6575679772483249;0.0969516707274942;0.214107509888456;0.35959688662674705;0.7943396226415109;0.673491089115858;0.773697020531365;0.79433962264151;0.578947368421053;0.7084268836540041;0.765939328960038;0.773697020531365;0.23367912571879998;0.41186645168282104
1;0.48167168775135205;0.7198952879581151;0.537184831444774;0.6595990878250619;0.7198952879581151;0.38391502276176;0.585173183802018;0.6456672862426999;0.6595990878250619;0.0956146482341744;0.21138327033873397;0.38091499819315294;0.7987421383647801;0.6617384495995021;0.7735122254027641;0.7987421383647801;0.526315789473684;0.6974291671400021;0.765750053447226;0.773512225402765;0.197175278282654;0.36246315857441996
1;0.47771280742079797;0.7219404450261779;0.542577020323421;0.6629614096251321;0.7219404450261779;0.38239757207890707;0.590384508487449;0.649096903690189;0.662961409625133;0.0939542845717021;0.20880202274243898;0.397241684296119;0.8056603773584929;0.6500711004098461;0.775176844386027;0.8056603773584909;0.504385964912281;0.6864731949478591;0.7674551404978871;0.775176844386027;0.18226630138804997;0.3421858779819699
1;0.48612889589114705;0.7162140052356021;0.53343286001169;0.6558768687817199;0.7162140052356021;0.38239757207890707;0.581540923334744;0.64187220459143;0.655876868781719;0.0934518496090348;0.20722299432187802;0.410159793799671;0.796855345911951;0.639986567818666;0.7658953893228979;0.7968553459119501;0.47807017543859703;0.676972666087503;0.7579511789734599;0.7658953893228979;0.168612555108221;0.32512031692474497
1;0.49792218193072496;0.713432591623037;0.521086073644711;0.649335315010591;0.713432591623037;0.3748103186646429;0.569552234305768;0.635206765656073;0.6493353150105899;0.0889206976646739;0.198531132851427;0.41919225601838395;0.785786163522013;0.6341964762665561;0.756203323057505;0.785786163522013;0.442982456140351;0.671504842656884;0.748034910280996;0.756203323057505;0.151767009449275;0.30319303804333003
1;0.48202452361097403;0.718750000000001;0.536794564659849;0.658745473528383;0.71875;0.37329286798179107;0.584795604118053;0.6447968104682651;0.6587454735283841;0.0947953641701997;0.211371038961296;0.40340217279206797;0.7884276729559759;0.646622112883499;0.761691753588986;0.7884276729559749;0.43421052631579;0.6832271761053389;0.7536492801100769;0.761691753588986;0.154416679455762;0.315436376009666
1;0.47222796986516496;0.716704842931938;0.546911972193643;0.6614559788943289;0.7167048429319369;0.371775417298938;0.5945665524245439;0.647561168857311;0.6614559788943289;0.10079484622265199;0.222471125730799;0.418089208769072;0.793962264150945;0.6364703043537371;0.762786691842565;0.7939622641509431;0.39473684210526294;0.673653251792589;0.7547696625510959;0.7627866918425641;0.136026097649756;0.29294403308614503
1;0.469187427014573;0.71089659685864;0.549420047902336;0.6588861737471271;0.7108965968586389;0.3687405159332321;0.596983118932286;0.64494028372014;0.6588861737471271;0.10629857003321501;0.23227073067894702;0.4152020772871529;0.7871698113207571;0.638162645863241;0.7583473860801059;0.787169811320755;0.368421052631579;0.675251291026194;0.750227853961283;0.7583473860801059;0.135201975929545;0.295473045954578
1;0.462824921158051;0.71482329842932;0.555442531518079;0.6636447625094039;0.7148232984293191;0.364188163884674;0.6027768067430029;0.6497941051766011;0.663644762509403;0.10732829487209;0.23584046671146103;0.405409739047701;0.78805031446541;0.646583309405217;0.76140700550392;0.7880503144654091;0.33333333333333304;0.6831906370718961;0.753357932452352;0.76140700550392;0.13558907084154304;0.299316864611841
1;0.4617907283892129;0.7133507853403149;0.55685752052698;0.663298458189833;0.713350785340314;0.367223065250379;0.604136190667814;0.6494407755264611;0.663298458189832;0.107036347285388;0.236230199799885;0.4216326204712921;0.780125786163522;0.6316310380523891;0.751360132967604;0.780125786163522;0.32017543859649106;0.6690791348155;0.743082803817338;0.7513601329676021;0.132977596217529;0.294893822638844
1;0.46493109663159105;0.6976439790575911;0.556120174963209;0.653409336885787;0.697643979057592;0.36570561456752704;0.6034279082934899;0.639357318349301;0.653409336885787;0.106182124826326;0.23621519084330897;0.413868549638733;0.772955974842768;0.637611799866272;0.747881827459863;0.7729559748427671;0.307017543859649;0.67473122933277;0.7395275586754091;0.7478818274598651;0.131856426448465;0.298084747384567
1;0.48005567174465097;0.6877454188481671;0.5404925385732879;0.6412289007400539;0.687745418848168;0.3687405159332321;0.5883711743472161;0.6269541984841801;0.641228900740053;0.10413969544005999;0.230888710016157;0.40991530427157;0.772327044025158;0.640069214596057;0.7481330932198341;0.772327044025157;0.285087719298246;0.6770506437944069;0.7397843464730459;0.748133093219835;0.126359859542079;0.30093424549485104
1;0.48345327530906396;0.6900359947643989;0.537695892644601;0.64153229497259;0.6900359947643979;0.370257966616085;0.5856675485749251;0.6272629158047571;0.64153229497259;0.098692808132186;0.22246750336920898;0.40802835328816994;0.7647798742138392;0.639537990975542;0.742507990991088;0.7647798742138371;0.29824561403508804;0.676549397415467;0.7340369613685059;0.742507990991089;0.140055481539048;0.315117405505211
1;0.4953979874984071;0.682018979057593;0.52534236407255;0.631776317435948;0.682018979057592;0.367223065250379;0.57369131502943;0.6173414906085689;0.631776317435948;0.0956075326526822;0.21725704251194897;0.408921920455198;0.7622641509433978;0.637611847682411;0.740129220455513;0.762264150943396;0.33771929824561403;0.67473127448043;0.7316073228324941;0.740129220455513;0.149612992680883;0.32356922735402505
1;0.5019241342533359;0.683982329842933;0.5194921820474699;0.6306792323125501;0.6839823298429321;0.353566009104704;0.568000537686127;0.616226539268129;0.6306792323125501;0.0896229411024287;0.206277187573798;0.413653221974249;0.7563522012578628;0.6323202858086729;0.734317935360922;0.756352201257862;0.34210526315789497;0.669731026599292;0.725673877085848;0.7343179353609229;0.151935617044821;0.32679417129687605
1;0.5139961464965279;0.677601439790577;0.507357335431151;0.622000969835222;0.6776014397905761;0.352048558421851;0.556156400436448;0.6074122136423791;0.622000969835223;0.0863363489335482;0.19871072738947199;0.420798402834494;0.7501886792452841;0.624999644794393;0.7277379825563269;0.750188679245283;0.32017543859649106;0.66280018952376;0.71895921775766;0.727737982556328;0.15061573767307998;0.32768680909452
2;0.515888264043414;0.6813645287958111;0.5059562937780749;0.62375479315087;0.681364528795812;0.35508345978755695;0.554785427087066;0.6091927809399;0.62375479315087;0.0834217658111261;0.19221509384995103;0.41910472552452005;0.746163522012581;0.625969607429346;0.7250984866003158;0.7461635220125792;0.32017543859649106;0.6637193891694539;0.7162667635414369;0.7250984866003158;0.14832405548334;0.32824045799855606
2;0.52010472473803;0.6669666230366489;0.502974759141018;0.61376221413622;0.6669666230366489;0.350531107738999;0.5518654565489439;0.599052933778172;0.613762214136219;0.0845449419654322;0.19449606044693699;0.417399654276279;0.7485534591194971;0.629236910029182;0.727773828261341;0.7485534591194971;0.32456140350877194;0.666813706955694;0.71899578691194;0.727773828261341;0.13671549435805;0.316339615326824
2;0.5120435035539129;0.674001963350786;0.510476949427081;0.621023882521526;0.6740019633507851;0.353566009104704;0.55920645465942;0.606420392331533;0.621023882521526;0.0874750201158673;0.19996596623480897;0.41345291362342296;0.7601257861635229;0.63230162385348;0.7370489943465459;0.760125786163522;0.32456140350877194;0.669713377878661;0.728461973705573;0.737048994346548;0.141882593381518;0.32476182135371
2;0.5063198365259289;0.673756544502619;0.517036748982609;0.623454079058244;0.6737565445026179;0.35508345978755695;0.565608291319345;0.60888745415637;0.623454079058245;0.089971088228571;0.203901029812695;0.3972072246070279;0.75811320754717;0.646946717511208;0.7398085249483549;0.75811320754717;0.315789473684211;0.683532821205484;0.7312798078793271;0.7398085249483549;0.143154370176706;0.326848027336038
2;0.495553307810344;0.685373036649214;0.526117585832233;0.63413346467678;0.6853730366492149;0.353566009104704;0.574444480373242;0.619737529604742;0.6341334646767789;0.0960987637030324;0.21342311490784696;0.39972176851136404;0.755345911949688;0.643871943171719;0.736916746965316;0.7553459119496859;0.315789473684211;0.680636443477495;0.7283269491359229;0.7369167469653148;0.142596179479278;0.32894276459127003
2;0.499113504920834;0.676865183246073;0.522408500775561;0.6274691332072729;0.676865183246073;0.35811836115326295;0.5708389500228721;0.612965021078433;0.627469133207272;0.100096258696139;0.21799891465344;0.38384461126220204;0.7493081761006309;0.655593924347147;0.7359177578838879;0.7493081761006289;0.32017543859649106;0.691664036295885;0.727307031404465;0.7359177578838891;0.153890420876295;0.346015802914648
2;0.506197788416732;0.670157068062828;0.515176508111279;0.6205187680533361;0.670157068062827;0.359635811836115;0.563794451415225;0.605907707440195;0.620518768053337;0.0987888133075625;0.215994608134447;0.38830433330366404;0.749559748427675;0.650190476811355;0.73454312066697;0.749559748427673;0.31140350877193;0.6865854861665881;0.725903740341323;0.7345431206669709;0.158699826554184;0.35394575272260204
2;0.512291386671926;0.661321989528797;0.510701435631338;0.613348157783949;0.661321989528796;0.35660091047041;0.5594257967639611;0.598633042532324;0.613348157783949;0.0955175648657577;0.210194531178083;0.392191668672033;0.7339622641509449;0.645358369268838;0.72184477043336;0.733962264150943;0.315789473684211;0.6820369617723321;0.7129486151140719;0.72184477043336;0.156781416466133;0.35396002326179105
2;0.518834237848559;0.6519960732984301;0.5058371974264729;0.605721404548066;0.6519960732984289;0.350531107738999;0.554668853163376;0.5909026180656379;0.6057214045480649;0.0916168883768054;0.203744835686596;0.37658409090976797;0.732578616352201;0.660429435032485;0.725189106195617;0.732578616352201;0.31140350877193;0.696201861616478;0.716359191074233;0.725189106195617;0.14930674481569597;0.34765009406123804
2;0.520252012474144;0.6491328534031421;0.505541276379785;0.603851481218347;0.649132853403141;0.350531107738999;0.554379176871295;0.589008378552391;0.603851481218348;0.0897004158626582;0.20026878975144;0.360901500816966;0.725660377358491;0.670566790793348;0.7231011283546899;0.725660377358491;0.307017543859649;0.7056940004829599;0.714229741090388;0.723101128354689;0.160960484413845;0.37004056489766396
2;0.5196604686411129;0.656986256544502;0.503984020051667;0.608046980960607;0.6569862565445029;0.352048558421851;0.552854247476735;0.593259041313159;0.6080469809606079;0.0915347739749358;0.20308070869181802;0.377124719084317;0.717735849056606;0.6572614492816329;0.71352088994285;0.717735849056604;0.302631578947368;0.6932296430683321;0.7044641694622651;0.7135208899428521;0.154061870840588;0.35712189327546395
2;0.517976682254224;0.656495418848168;0.505321511238393;0.6082734273036391;0.656495418848168;0.352048558421851;0.554164028365293;0.5934885271364311;0.6082734273036391;0.091724049350507;0.205558001037344;0.38386278624172904;0.702893081761008;0.6514706145301329;0.701093839935877;0.702893081761006;0.302631578947368;0.6877893935400501;0.691808830928342;0.7010938399358779;0.14693163968391598;0.34706560127335495
2;0.507741980581261;0.656331806282723;0.514924960140121;0.6119566128113821;0.656331806282723;0.35660091047041;0.563549080542175;0.5972220437729039;0.611956612811381;0.0989515470891034;0.21916256872868198;0.400752338764165;0.7099371069182401;0.6391445871236661;0.7026367054257199;0.709937106918239;0.302631578947368;0.676178141865551;0.6933792952681931;0.7026367054257199;0.136372678319377;0.32952253824271993
2;0.5013182356434059;0.660094895287959;0.522049054286634;0.617064763511781;0.6600948952879581;0.36570561456752704;0.570489273213731;0.602402784380403;0.617064763511781;0.100980633276515;0.22144992699517801;0.41190792140836896;0.7013836477987421;0.6277728823768299;0.693148828373042;0.7013836477987421;0.315789473684211;0.665427570382834;0.6837250385382629;0.6931488283730429;0.14510760984465898;0.335188813221114
2;0.511057298218868;0.6434064136125661;0.513014631763374;0.6032922706789879;0.6434064136125661;0.3687405159332321;0.561684904504999;0.588441980416258;0.6032922706789879;0.10103126830140802;0.221297265289685;0.42474378388019896;0.6900628930817629;0.6159247540348779;0.6815120786520821;0.690062893081761;0.32456140350877194;0.654187073554138;0.6718951180580899;0.681512078652083;0.143688174019068;0.33012749846511497
2;0.521892288093535;0.64029777486911;0.501776033688214;0.5969561031215179;0.64029777486911;0.36570561456752704;0.550690551465442;0.5820270843237271;0.596956103121517;0.0976307469242431;0.213844833776163;0.42779114133390894;0.680754716981134;0.61284230178989;0.673869311448927;0.680754716981132;0.328947368421053;0.6512560399183559;0.6641320090209271;0.673869311448927;0.144649380783224;0.32830766537363104
2;0.5240331571464699;0.6365346858638741;0.5005485698544121;0.594167179602515;0.6365346858638741;0.361153262518968;0.549486924359809;0.579205086804886;0.594167179602516;0.0940236564510121;0.209762237207668;0.443274168187192;0.674716981132077;0.598652133592077;0.665377877737084;0.6747169811320761;0.32456140350877194;0.637727118864083;0.6555129406583089;0.665377877737086;0.143635373501514;0.324108109952901
2;0.529428939281114;0.638661649214659;0.494066772624596;0.592911199959535;0.63866164921466;0.350531107738999;0.543121661015256;0.577934527658931;0.592911199959536;0.0908595109817499;0.205458787912074;0.449418078208125;0.664150943396229;0.592225699423834;0.6558487958723671;0.664150943396226;0.33333333333333304;0.631580649054165;0.645848235598585;0.6558487958723671;0.145443962542404;0.32415109297505895
2;0.527728868995634;0.642751963350785;0.49355011451870895;0.595213093625059;0.642751963350785;0.34597875569044;0.54261361380285;0.5802632912621221;0.595213093625059;0.0987300133879217;0.214678338234254;0.446937085616106;0.658364779874216;0.592466528813362;0.651720894451307;0.658364779874214;0.32456140350877194;0.6318112074741079;0.641664081374807;0.651720894451307;0.15561478081657998;0.33638677061518396
2;0.529932616533117;0.645696989528796;0.491080075875065;0.5960426743542391;0.645696989528796;0.344461305007587;0.5401833539650779;0.581102716855181;0.5960426743542391;0.0996073124102678;0.21249878225626603;0.456152364671586;0.661509433962266;0.5833036249396851;0.651342997313185;0.661509433962264;0.32456140350877194;0.6230269196958311;0.6412811099019631;0.651342997313185;0.162077637828146;0.34284627672653994
2;0.523766218281314;0.647496727748692;0.49573907184845395;0.5989836199099751;0.647496727748691;0.3748103186646429;0.5447654012562971;0.5840792514836279;0.5989836199099751;0.109398194340399;0.22563444838894398;0.465978338118657;0.657106918238994;0.5775004058087231;0.6464633148166421;0.657106918238994;0.328947368421053;0.6174505079861179;0.636337040615069;0.6464633148166429;0.147548318149692;0.318593319166567
2;0.506923953099567;0.66083115183246;0.511545878941974;0.613380184990779;0.6608311518324611;0.409711684370258;0.560250723265768;0.5986655203082459;0.613380184990778;0.118637303958236;0.238683443346198;0.481480448665921;0.663270440251573;0.566930324937254;0.647867978871481;0.663270440251572;0.32456140350877194;0.607267456417645;0.637760022761285;0.6478679788714821;0.130629014276758;0.29435787205750497
2;0.50663016779983;0.671875000000001;0.511810247291151;0.620246067115534;0.671875;0.39908952959028793;0.560508927512759;0.605630932547585;0.620246067115534;0.113438885128638;0.230005863889036;0.479503970039016;0.673962264150945;0.5716596892630861;0.657002216994511;0.673962264150943;0.328947368421053;0.6118278305056271;0.6470176448178699;0.657002216994511;0.12282359339777;0.281477962876087
2;0.508591045350383;0.669666230366493;0.510160530968774;0.6182443995113149;0.6696662303664921;0.386949924127466;0.5588972553606689;0.6035996439579201;0.618244399511316;0.111229471353076;0.227825075059172;0.48915680557583896;0.6681761006289321;0.563978308283251;0.650572492584321;0.668176100628931;0.32456140350877194;0.604417477248978;0.6405002981792579;0.650572492584321;0.11256900719055801;0.267865872249972
2;0.5082692912613571;0.6615674083769639;0.510150506586067;0.613281463362456;0.661567408376963;0.39757207890743607;0.5588874590828671;0.598565410240707;0.613281463362456;0.11677048179268901;0.23643443981233203;0.488940081449287;0.660377358490566;0.564153364527001;0.644961271812267;0.660377358490566;0.328947368421053;0.604586556628023;0.6348156030534841;0.644961271812267;0.113699253710048;0.26557780011739607
2;0.514030180412588;0.6510962041884829;0.5053453305980921;0.6049764812442011;0.6510962041884821;0.39301972685887704;0.5541873482143249;0.590147955898749;0.6049764812442011;0.11566366478079099;0.234715700011823;0.48610422837993605;0.659496855345913;0.566126276100655;0.6448950123323871;0.659496855345912;0.32456140350877194;0.606491462603237;0.6347484926274979;0.6448950123323871;0.11676378798566699;0.270299889645952
2;0.507797294020071;0.659276832460734;0.5104163732526861;0.6119837173795021;0.6592768324607329;0.4051593323217;0.559147263403037;0.5972495249679151;0.611983717379501;0.11878291021937801;0.239653235023237;0.480084244288945;0.675849056603774;0.572450766264782;0.658601355983862;0.675849056603774;0.315789473684211;0.612589979064011;0.648639145230177;0.658601355983864;0.113419901393479;0.271816901536805
2;0.508635275563257;0.664921465968586;0.5070543674217249;0.614116072275713;0.664921465968586;0.40667678300455196;0.555859996156421;0.599411795357177;0.614116072275714;0.12089930701144;0.24358328994287196;0.4760721815885471;0.660377358490566;0.5755964492031629;0.6482840690334499;0.660377358490566;0.315789473684211;0.6156187583688361;0.6381815726826011;0.648284069033451;0.10907641203756;0.267182222012124
2;0.5050971108557579;0.66598494764398;0.511913296497582;0.616680250169098;0.665984947643979;0.39453717754172996;0.5606095670160239;0.602012694170703;0.616680250169099;0.116843035868962;0.24032526667002696;0.48584930691301204;0.662893081761007;0.5670035888223921;0.6476153028129941;0.6628930817610059;0.307017543859649;0.6073381541947099;0.637504038681324;0.6476153028129951;0.107346233830919;0.26427706778459104
2;0.506703303333292;0.6637761780104721;0.512290581588478;0.6154764622293061;0.6637761780104711;0.370257966616085;0.560977996304824;0.600791565485903;0.6154764622293061;0.109825130785202;0.231710972838282;0.4690438186435711;0.658867924528303;0.577782122093929;0.647823156053489;0.658867924528302;0.307017543859649;0.6177214475638909;0.637714612712563;0.647823156053489;0.127778287268569;0.295688460379912
2;0.49814590548215204;0.670975130890052;0.520940744896078;0.623287108542043;0.670975130890052;0.34901365705614595;0.569410791224063;0.6087179273040311;0.623287108542043;0.107348282347256;0.232759263361464;0.456932704293008;0.66867924528302;0.5881279493812951;0.6579454784252601;0.668679245283019;0.293859649122807;0.627655019353303;0.647974068852886;0.657945478425261;0.13698461406395301;0.30850815074082694
2;0.505237620992999;0.6722840314136129;0.51390804587937;0.621321873120542;0.6722840314136129;0.329286798179059;0.5625569011990429;0.6067228639259711;0.6213218731205411;0.10159859838436401;0.22339875859476702;0.44261936720469297;0.665157232704404;0.5966714088616479;0.6578685936395239;0.665157232704403;0.33333333333333304;0.635833985956866;0.647896108238267;0.657868593639522;0.1596038949968;0.339755250127597
2;0.501610234760736;0.6713841623036639;0.518591454194031;0.622613391834956;0.6713841623036649;0.329286798179059;0.567123244623869;0.6080339310671701;0.622613391834956;0.100279440462843;0.22327399929903197;0.43011110701416;0.6630188679245289;0.602855845560454;0.658111531947215;0.663018867924528;0.385964912280702;0.641741100852725;0.648142447706109;0.658111531947215;0.192839665450119;0.37904024294952504
2;0.4899796049508571;0.6671302356020941;0.533011025336063;0.625681491325499;0.6671302356020941;0.333839150227618;0.5811322317111229;0.611149299265217;0.625681491325499;0.102195910357997;0.22832459019033;0.42470626799679706;0.665283018867926;0.607978910198204;0.661239545924631;0.6652830188679251;0.39035087719298206;0.646625921304803;0.651314721375193;0.661239545924633;0.197524834195872;0.381760692619728
2;0.492136683408495;0.662630890052356;0.532600954217454;0.6227682478854311;0.662630890052356;0.33535660091047;0.5807348757839029;0.60819114491655;0.6227682478854301;0.0994755600021542;0.223297790925835;0.41591017425856297;0.6705660377358511;0.6121867138617081;0.666290747548531;0.670566037735849;0.451754385964912;0.6506322996994219;0.6564392252804571;0.66629074754853;0.22576687247736998;0.413869221999275
2;0.49869559160993504;0.661403795811519;0.52486344944554;0.618973342490807;0.6614037958115179;0.333839150227618;0.573225917438394;0.604339316382076;0.618973342490807;0.0983727216853173;0.221209155963154;0.42054528612206704;0.658364779874216;0.60670480824208;0.6558527597179499;0.658364779874214;0.47368421052631604;0.645411789202447;0.645852254186967;0.655852759717949;0.23522992268808898;0.41866286068833797
2;0.49802513071711296;0.67056609947644;0.5250953226720471;0.6246707518441229;0.67056609947644;0.329286798179059;0.573451256594676;0.6101228587866301;0.624670751844124;0.0948509084298827;0.21586880085961901;0.430783093709905;0.6581132075471721;0.59800536432572;0.653145926211434;0.6581132075471701;0.46491228070175394;0.6371090784905961;0.64310836203945;0.6531459262114351;0.233723814947098;0.41421101566907703
2;0.500342366622414;0.6679482984293199;0.5226305855608171;0.622099410447817;0.6679482984293189;0.32776934749620595;0.5710549750882641;0.6075121452606;0.622099410447816;0.0950372897614584;0.21611084345078602;0.435845526729716;0.662641509433963;0.5942784707771961;0.655349340340457;0.662641509433962;0.456140350877193;0.633545321497044;0.6453418934624;0.655349340340457;0.227124778529355;0.408467755913461
2;0.5014025261858039;0.6688481675392671;0.519191644949729;0.621297260739015;0.6688481675392671;0.324734446130501;0.567707852792975;0.6066978810214151;0.621297260739015;0.100409497007037;0.22381628738706;0.423433275651359;0.656603773584906;0.5997095533078579;0.652545642321883;0.656603773584906;0.5350877192982461;0.638737303139686;0.6424999477583511;0.6525456423218841;0.26895136886957394;0.451793889018007
2;0.508937130081051;0.6641034031413621;0.51279340137208;0.615874753941046;0.664103403141361;0.32776934749620595;0.561468932234279;0.601195574742426;0.615874753941046;0.098119730239739;0.21667792903929897;0.399741215243375;0.648176100628931;0.6141331038734329;0.650620477153265;0.648176100628931;0.578947368421053;0.6524837705371329;0.640548923098685;0.650620477153266;0.309281407934962;0.500547641844332
2;0.517569819291391;0.6600130890052359;0.503770563215488;0.609816652157359;0.6600130890052359;0.329286798179059;0.552645151580391;0.5950526354109119;0.609816652157359;0.0982650906244285;0.213456577802764;0.392358863117021;0.659245283018869;0.618172501834715;0.659817899417625;0.6592452830188679;0.6403508771929821;0.656322665581779;0.64987285186358;0.659817899417624;0.350376871601348;0.533762278113539
2;0.5282889732296839;0.6523232984293189;0.49348887386532997;0.6010531066208901;0.6523232984293189;0.33232169954476504;0.542553387164925;0.5861744249292271;0.6010531066208901;0.0950092872473332;0.20621876140341602;0.39463652202275395;0.651320754716981;0.6166374057409879;0.6536272407339829;0.651320754716981;0.6096491228070179;0.6548643248209329;0.643596218669076;0.6536272407339829;0.335553627990342;0.522381610739464
2;0.536535607340516;0.641034031413614;0.4882549333159821;0.59207018518974;0.6410340314136129;0.329286798179059;0.537400887828651;0.577083859758822;0.59207018518974;0.0890455621144849;0.194799546128388;0.40319957490152003;0.648805031446543;0.6112547295350871;0.650240957333785;0.648805031446541;0.570175438596491;0.649745374498221;0.640164344190488;0.6502409573337871;0.31319358607548897;0.501065008468536
2;0.5450425362278879;0.64029777486911;0.480510918705516;0.5885606979668659;0.64029777486911;0.326251896813354;0.529758341056011;0.57353503816674;0.5885606979668659;0.0821248594750205;0.182236715645156;0.402230210415288;0.6435220125786171;0.612013612614834;0.6466307252400961;0.643522012578616;0.548245614035088;0.6504675866144711;0.6365066250448069;0.646630725240098;0.30535798837007394;0.496900069021651
2;0.54769981002567;0.632689790575917;0.48028880889617703;0.5838092669451899;0.632689790575916;0.32018209408194204;0.529538804750045;0.568732788563255;0.5838092669451899;0.0782549388411931;0.17583804774301998;0.409941399860145;0.6539622641509439;0.6093203031208471;0.653419096494283;0.653962264150943;0.504385964912281;0.6479036639322541;0.6433852427789991;0.6534190964942839;0.27858782860071396;0.46932998849840796
2;0.553907255687978;0.62401832460733;0.473825949540884;0.575937730806656;0.62401832460733;0.317147192716237;0.523142559579259;0.5607832283337549;0.575937730806656;0.0776193577201784;0.17570558373075798;0.407197259555574;0.648679245283021;0.612234251298996;0.6504340896831701;0.648679245283019;0.46491228070175394;0.650677532033305;0.640360049444712;0.6504340896831701;0.265007719878125;0.46032764753285793
2;0.5561482845817621;0.6200098167539261;0.47061512764897795;0.5722093993126329;0.620009816753927;0.31866464339909;0.5199588650526571;0.5570206244584059;0.572209399312634;0.0803869403288016;0.18024518246123802;0.40574526904614894;0.662264150943397;0.615199529417067;0.661144458023262;0.662264150943396;0.43421052631579;0.653497722505621;0.651218275254015;0.661144458023264;0.25335056351963103;0.45286798124836997
2;0.548755084777182;0.617392015706807;0.478090517133655;0.5735630069215141;0.617392015706806;0.32169954476479495;0.527364967147637;0.558386475540309;0.5735630069215141;0.0844200908343415;0.18966927340828305;0.403727164897248;0.666415094339623;0.618155171900486;0.6650111251643511;0.666415094339623;0.399122807017544;0.656306205963523;0.6551408193740971;0.665011125164353;0.24600022227777202;0.44649253470886896
2;0.5448227993218471;0.618128272251308;0.482349498098133;0.57569942335364;0.618128272251309;0.31866464339909;0.531574894798875;0.56054267865275;0.57569942335364;0.0839838824768779;0.19154177408345896;0.397271175689892;0.6743396226415109;0.625576953607783;0.672907175437801;0.67433962264151;0.385964912280702;0.6633473175121241;0.6631550901851611;0.672907175437801;0.23864778206756398;0.4394343344921911
2;0.532093217352576;0.627617801047121;0.49356395150041105;0.585947409647565;0.6276178010471201;0.32169954476479495;0.542627221478122;0.5708934529086529;0.585947409647564;0.0884477504570049;0.20289762744044895;0.39279771140977204;0.6789937106918239;0.628133443373463;0.677021512061021;0.6789937106918239;0.37719298245613997;0.665769005469844;0.667333216526364;0.677021512061021;0.247327537720826;0.452238533348438
2;0.5261778256774771;0.632117146596859;0.49700331394617103;0.590061948902065;0.632117146596859;0.32321699544764804;0.546007356635733;0.575052928067794;0.5900619489020661;0.0939530022627969;0.21457692678660398;0.386211441019389;0.683899371069184;0.631537215960705;0.681563097712187;0.683899371069182;0.37280701754386003;0.668990387195653;0.671946957848223;0.6815630977121879;0.26403350924449;0.47372465064808505
2;0.524877269353569;0.626145287958115;0.49829535825577;0.586914934263491;0.626145287958115;0.32169954476479495;0.5472760055576901;0.5718713551726751;0.5869149342634921;0.0989211772216807;0.22170756117358104;0.392730156045541;0.6860377358490561;0.625662021247876;0.681412412856541;0.686037735849057;0.381578947368421;0.6634279298343261;0.6717938496308521;0.6814124128565401;0.26017234218302;0.47209133734103004
2;0.51172617738908;0.631135471204189;0.5130521678997659;0.595796842266277;0.631135471204188;0.32169954476479495;0.561721546710251;0.580853958505537;0.595796842266277;0.10115074117130499;0.22632811677845396;0.39997222272972205;0.685031446540881;0.620678934935807;0.679240116101802;0.685031446540881;0.37719298245613997;0.658702308704506;0.6695868408912261;0.679240116101803;0.251435689668597;0.460525022623267
2;0.513344190677526;0.634489528795811;0.50875241643514;0.596152890782196;0.634489528795812;0.326251896813354;0.557520819072902;0.581214247679088;0.5961528907821949;0.10305971357144801;0.23106352341634803;0.421148171952898;0.680754716981134;0.603057753980596;0.67103451866888;0.680754716981132;0.34649122807017496;0.641933765464712;0.661253896021437;0.6710345186688821;0.23870786893336396;0.4448900721691889
2;0.514918029161809;0.6362074607329841;0.507525854809198;0.596720525879271;0.6362074607329841;0.32018209408194204;0.556321254175817;0.581788676034542;0.596720525879271;0.10000707772941801;0.22636913006187598;0.44416680356580496;0.68050314465409;0.5850173757830589;0.665623429049635;0.680503144654088;0.350877192982456;0.624671761538453;0.655762093138019;0.665623429049636;0.222166965744064;0.422059075416748
2;0.513057250095181;0.639888743455498;0.511641578215416;0.6005976918596739;0.6398887434554971;0.31866464339909;0.56034419415547;0.5857133118908628;0.6005976918596729;0.0936709821348482;0.216475804070332;0.45164395446815997;0.676100628930818;0.582108494749303;0.6615850253174279;0.676100628930818;0.35526315789473706;0.621879324840981;0.65166514228214;0.66158502531743;0.199243348398481;0.39110609805879293
2;0.522550654132902;0.633344240837697;0.501378984034071;0.592541248835151;0.633344240837696;0.317147192716237;0.5503012737675009;0.577560319438556;0.592541248835151;0.0923740330459257;0.21390822120972303;0.470826958898075;0.679748427672956;0.568291127113009;0.660225630480671;0.679748427672956;0.34649122807017496;0.60858032958083;0.6502863646081309;0.660225630480672;0.17835944109219898;0.363909643055164
2;0.52551203883733;0.633426047120419;0.499634025127913;0.591902395270445;0.633426047120419;0.311077389984826;0.548589774277113;0.576914154457164;0.591902395270446;0.0872917649576926;0.20552904839206898;0.48322541402024605;0.676100628930818;0.5601622540332309;0.6552189233614321;0.676100628930818;0.34649122807017496;0.600729388916151;0.6452096819046179;0.6552189233614321;0.16065465142295002;0.3378846982464939
2;0.536465157180114;0.631217277486912;0.48967926882284096;0.5866176268879971;0.631217277486911;0.30349013657056106;0.5388040842413221;0.571570846520738;0.5866176268879979;0.0803334139292249;0.191641587373526;0.487521144004348;0.661383647798744;0.553629180316199;0.642635215097055;0.661383647798742;0.34649122807017496;0.594405041760917;0.632459906543709;0.642635215097056;0.16774462989763098;0.34730265826635
2;0.542204348002198;0.6362074607329841;0.4834741285582779;0.587224058868583;0.6362074607329841;0.298937784522003;0.532685417601349;0.572183819928934;0.587224058868582;0.0745806286393155;0.18199063755977601;0.49602608124773706;0.660125786163522;0.5450628783841;0.639232970758198;0.660125786163522;0.33771929824561403;0.5860925055560351;0.629015172582297;0.639232970758199;0.175460190201981;0.35326306170699395
2;0.536170331146928;0.640952225130891;0.489338624363386;0.592447920410403;0.64095222513089;0.301972685887709;0.538468565179938;0.5774659197491999;0.592447920410403;0.0750013676213157;0.184853917775773;0.48799508377524;0.663270440251573;0.550101777057486;0.642980860090259;0.663270440251572;0.350877192982456;0.590984879523231;0.632809925591818;0.64298086009026;0.187776283382121;0.37208285179142403
2;0.532262143697569;0.628435863874345;0.49483833014239503;0.586952008650237;0.6284358638743461;0.30500758725341404;0.543880172597693;0.571908829529508;0.5869520086502379;0.0793815534964967;0.19329155062873396;0.48471625198166496;0.661886792452832;0.553054370237566;0.64283363485579;0.6618867924528299;0.34649122807017496;0.593847968763334;0.63266083596283;0.642833634855791;0.18348587271801603;0.370460556586675
2;0.5240859957330519;0.624181937172775;0.501873738910654;0.587126432548052;0.624181937172775;0.30804248861912004;0.5507863351746259;0.572085137455941;0.5871264325480511;0.0880923376661237;0.20973116013844698;0.49117532124261104;0.6540880503144649;0.548655198196614;0.635891657114573;0.6540880503144649;0.350877192982456;0.589581169490497;0.625633128599651;0.635891657114573;0.17177923770335599;0.354266181703179
2;0.51530622426256;0.6190281413612571;0.510258324669258;0.5872840817036;0.6190281413612571;0.31411229135053104;0.5589928218194711;0.57224449269714;0.5872840817036;0.0967376619250789;0.22502552871136497;0.483206781347314;0.658867924528303;0.554619985322246;0.64109615444763;0.658867924528302;0.350877192982456;0.5953650344903161;0.6309014979690051;0.641096154447629;0.178660354818924;0.366472729872614
2;0.518981331638489;0.6048756544502621;0.505885737013129;0.576894072535688;0.6048756544502621;0.324734446130501;0.554716365329897;0.561748639145499;0.576894072535687;0.101565515766527;0.23433319521707102;0.464122020619516;0.6576100628930811;0.567641439696103;0.6439653552954421;0.6576100628930821;0.34649122807017496;0.607953595069494;0.633806937369496;0.6439653552954421;0.203532772715393;0.400420227106644
2;0.5057641589859551;0.610847513089006;0.516363041022638;0.584690691933736;0.610847513089005;0.361153262518968;0.564951534493379;0.569623429110651;0.584690691933735;0.114545410962109;0.255310356681103;0.451141843226315;0.65308176100629;0.5774630053925129;0.643531251377648;0.653081761006289;0.34210526315789497;0.617414536480682;0.633367303800459;0.643531251377651;0.211312919592182;0.413028339164822
2;0.503685939791397;0.609947643979057;0.516712579758999;0.584278336079761;0.609947643979058;0.370257966616085;0.565292299253631;0.569206749952533;0.584278336079761;0.121245620706067;0.265534963480443;0.45863097497113703;0.649685534591196;0.5704020934374681;0.6390150370097609;0.6496855345911949;0.33771929824561403;0.610615833104813;0.628794552080102;0.639015037009762;0.206664788153728;0.41001656502724104
2;0.5087451363074821;0.60446662303665;0.5118339701293491;0.578996391682855;0.6044666230366489;0.361153262518968;0.560532095962522;0.563871293786109;0.5789963916828559;0.12172885476390802;0.264895708993701;0.46412923185721794;0.640503144654089;0.5649939230334741;0.630777745082982;0.640503144654088;0.33771929824561403;0.6053982862745649;0.620458794198444;0.630777745082984;0.20322555911016602;0.40619431276478296
2;0.514439290851081;0.614774214659687;0.5062786827163479;0.583107908729172;0.6147742146596861;0.342943854324734;0.5551009615332789;0.5680241663204749;0.583107908729171;0.11405435783447301;0.250620216592659;0.46643789283772796;0.641006289308177;0.561612070729669;0.630159599313843;0.641006289308176;0.33771929824561403;0.602131111953879;0.6198335018461401;0.630159599313843;0.210222217005082;0.4156179101612079
2;0.509349411776404;0.618046465968586;0.512918467756816;0.5877342388685799;0.618046465968586;0.342943854324734;0.5615910283003621;0.5726995384586829;0.587734238868579;0.11227829112731;0.247741154176652;0.48537001164424604;0.640377358490567;0.547043538904308;0.625465604846549;0.640377358490566;0.33333333333333304;0.588016508866239;0.6150863433899849;0.625465604846551;0.20074072493024497;0.39616437307735
2;0.5107410412526;0.6218095549738221;0.511354311929324;0.5894191946271751;0.6218095549738221;0.329286798179059;0.560063606805833;0.5744030156507189;0.5894191946271751;0.10854828868897601;0.24287497637205802;0.5127641848471379;0.634591194968554;0.524071152958429;0.6145761139175201;0.634591194968553;0.33771929824561403;0.565625963584176;0.604081037245885;0.6145761139175201;0.192654160666744;0.37727947169767795
2;0.515238449753307;0.6218913612565439;0.507683517753502;0.5880193255400931;0.621891361256545;0.32169954476479495;0.5564754781143231;0.572987734107661;0.5880193255400921;0.104673032272167;0.235212509468285;0.508585173473288;0.644276729559749;0.527352513502509;0.622569091155706;0.644276729559749;0.33771929824561403;0.568834359854033;0.6121579980357139;0.622569091155707;0.206732860085386;0.39066320614619204
2;0.506576008711315;0.618700916230367;0.5184386821189241;0.590315012868065;0.618700916230367;0.30652503793626695;0.56697441790935;0.575308824390167;0.590315012868065;0.10394168018722501;0.237728722203968;0.48865833096749;0.656477987421384;0.5423699514192271;0.6358007260546931;0.656477987421384;0.35964912280701794;0.5834746568864139;0.625541102925693;0.635800726054694;0.235199763344762;0.42556814256755604
2;0.4823299734141471;0.632607984293195;0.5426108278702519;0.6083537209219539;0.632607984293194;0.309559939301973;0.590417149362219;0.5935699000255539;0.6083537209219531;0.110842040004695;0.25212235351824;0.4874640303946479;0.660125786163522;0.54618040981499;0.639557680361853;0.660125786163522;0.368421052631579;0.5871782192974301;0.629343893111979;0.639557680361854;0.226387779320822;0.40982537704840993
2;0.483130423171403;0.6277814136125661;0.5416157417665329;0.605011888217748;0.6277814136125661;0.32776934749620595;0.589456232650162;0.590183824211718;0.605011888217748;0.112898658722919;0.2557813763004;0.488345956039246;0.6584905660377379;0.545676205044248;0.638223453957379;0.6584905660377359;0.350877192982456;0.58668841790547;0.6279932455566469;0.638223453957381;0.22471062678522305;0.406786196643475
2;0.48681903199424603;0.6301537958115179;0.5361925417832101;0.604323978974648;0.6301537958115179;0.344461305007587;0.584213045296026;0.5894869796239429;0.604323978974648;0.11455598924573102;0.25705476661637;0.493038720480159;0.6555974842767309;0.541191869730959;0.6348187038944879;0.6555974842767299;0.35526315789473706;0.58232871074296;0.62454730601872;0.634818703894489;0.22321522799113602;0.40515766327393704
2;0.48311321552834796;0.6328534031413621;0.539751473804003;0.607376937700581;0.632853403141361;0.361153262518968;0.587655030393703;0.5925800416572089;0.607376937700581;0.115535185920101;0.259164748540233;0.506371038727155;0.6436477987421391;0.529683925880365;0.622790519355541;0.643647798742138;0.35964912280701794;0.571111864801766;0.612381833408615;0.622790519355541;0.212695654183668;0.390613905346773
2;0.48191434698957203;0.6377617801047121;0.538622029334364;0.6099321402020931;0.6377617801047121;0.371775417298938;0.5865631902017211;0.595169698163685;0.6099321402020931;0.11872074409389001;0.265065515557167;0.521662169253149;0.6319496855345911;0.51692801637416;0.610576130042839;0.6319496855345911;0.350877192982456;0.558629855444439;0.600041150345036;0.610576130042839;0.199327728216404;0.37194805930943103
2;0.478935034974332;0.6370255235602099;0.5391275995336801;0.6096812685136371;0.6370255235602099;0.3748103186646429;0.5870519840310711;0.594915407885176;0.6096812685136371;0.125788181174959;0.277803622410523;0.536184488665582;0.6279245283018879;0.502585667172485;0.6034711356283149;0.627924528301887;0.35526315789473706;0.5445334644727311;0.59286877380009;0.603471135628316;0.203086534322505;0.3754221846730279
2;0.477509463695295;0.624345549738219;0.541639948999634;0.602921732949963;0.62434554973822;0.364188163884674;0.589479612836774;0.588066701499974;0.602921732949962;0.12884091556461;0.284559592112519;0.541134427161285;0.626037735849056;0.49815314542526096;0.600807212862485;0.626037735849057;0.35526315789473706;0.540163542086142;0.590180740031088;0.6008072128624871;0.207606558080564;0.375117394629163
2;0.48324600241012;0.622709424083771;0.5367102388357271;0.599977624239045;0.62270942408377;0.34901365705614595;0.584714012458845;0.5850855271892521;0.5999776242390461;0.12484514137528699;0.27737791958363694;0.55488460378135;0.620125786163524;0.48653646221439706;0.593120199585245;0.620125786163522;0.364035087719298;0.528680564414763;0.5824276774648821;0.5931201995852471;0.209618658693607;0.365948173343251
2;0.491792682615652;0.6210732984293199;0.5282821607602399;0.595652055337568;0.6210732984293189;0.330804248861912;0.5765463168206589;0.5807074516152521;0.595652055337566;0.120841515206274;0.269764297377444;0.577134786427818;0.615471698113208;0.467683369530053;0.584232205495881;0.615471698113208;0.350877192982456;0.5099498521102439;0.573469842101625;0.5842322054958801;0.197881884346787;0.34740965423158005
2;0.495717122095294;0.6208278795811529;0.525287278898682;0.594319930219824;0.6208278795811519;0.32018209408194204;0.5736377888319549;0.5793596239144929;0.594319930219823;0.117703530041605;0.263061759247545;0.573771807591475;0.6104402515723271;0.47092732555939204;0.581518689488565;0.6104402515723271;0.34649122807017496;0.5131811665382271;0.570736398283902;0.5815186894885661;0.196608794464965;0.344274149023797
2;0.49120050151015704;0.614856020942409;0.531655572661215;0.5931823456520121;0.614856020942408;0.311077389984826;0.57981857736069;0.578208804261084;0.5931823456520121;0.11861164841011601;0.26537024211443105;0.545506092073716;0.607547169811323;0.490911775369118;0.585249706754249;0.6075471698113211;0.39473684210526294;0.5330106968707199;0.5744949839979809;0.58524970675425;0.228299313676658;0.390389558030231
2;0.473669003869941;0.624345549738219;0.550298284460355;0.606335047691179;0.62434554973822;0.342943854324734;0.5978287868267541;0.5915243354904289;0.606335047691179;0.121669041652961;0.271440054836069;0.5489867613466629;0.597861635220126;0.48626564937460703;0.576849702483597;0.597861635220126;0.40789473684210503;0.528412341611913;0.566034649876469;0.576849702483599;0.23368966950135;0.394877021626186
2;0.46952844187890797;0.630317408376963;0.553385997655812;0.6111994085960079;0.630317408376963;0.377845220030349;0.600799836174213;0.5964543548057829;0.6111994085960071;0.126180708192102;0.27602212715332897;0.558775142022202;0.593207547169812;0.480370595937035;0.571742347415923;0.5932075471698111;0.39473684210526294;0.522567683156068;0.560893669758837;0.5717423474159239;0.21738516604092697;0.36875329651296296
2;0.47012805421497295;0.634244109947644;0.553579012043986;0.6136738791823879;0.634244109947644;0.37329286798179107;0.600985446399161;0.5989633522204089;0.613673879182389;0.12142597306856699;0.26898721240839196;0.563278458220627;0.591320754716981;0.47820281038004897;0.5697363848144721;0.591320754716981;0.37719298245613997;0.520415543392695;0.5588751328143461;0.569736384814474;0.204747081247914;0.351390276926855
2;0.452516737864515;0.6345713350785339;0.5712809288452471;0.620841390883068;0.6345713350785339;0.39453717754172996;0.617952975837225;0.606235161939187;0.620841390883067;0.130415945998288;0.285464059521862;0.5779505526786429;0.5928301886792471;0.4683814304835;0.567962951343458;0.592830188679245;0.34649122807017496;0.510645489913706;0.557090879572551;0.567962951343459;0.181659844019945;0.321437350514164
2;0.450528135314011;0.630890052356022;0.572733132699079;0.6191662509044079;0.630890052356021;0.41729893778452204;0.619340108654062;0.604535075284198;0.6191662509044089;0.13660375559766302;0.293325104317635;0.591019651635643;0.5803773584905669;0.45671061394081897;0.555487966186046;0.580377358490566;0.34210526315789497;0.498993669322709;0.5445476596544979;0.5554879661860479;0.166620251671161;0.304621919639753
2;0.454365266799776;0.624754581151833;0.5698556638721539;0.6142893885489;0.624754581151833;0.41881638846737496;0.6165908676806939;0.599587567935656;0.614289388548901;0.135040864135042;0.290616966297862;0.582209461515946;0.5852830188679239;0.462785466982991;0.560835268571819;0.585283018867925;0.34210526315789497;0.5050643557760639;0.5499225216159871;0.56083526857182;0.183292727698008;0.32612823455774104
2;0.46887410946943;0.616737565445027;0.556533163175831;0.60414639913347;0.616737565445026;0.40060698027314096;0.6038246416474979;0.589307102711145;0.60414639913347;0.127413026614237;0.27791271119180394;0.5732015434897479;0.582264150943396;0.46905723917297;0.560473930315158;0.582264150943396;0.37719298245613997;0.511318797344347;0.549559241226216;0.56047393031516;0.20013112097125899;0.343496256183463
2;0.48293195294456603;0.6122382198952889;0.541823718773665;0.595595973960639;0.6122382198952879;0.380880121396055;0.589657097261183;0.5806507047320479;0.595595973960639;0.122671972753054;0.269479350546349;0.5812405164479829;0.574716981132076;0.461778038355377;0.552852767889077;0.574716981132076;0.381578947368421;0.504058479187454;0.54189981176932;0.552852767889077;0.197191015340612;0.336113765897241
